t,ecg,resp
0,595.953707600308,474.083298725612
0.00390625,595.944916796095,474.083521223304
0.0078125,595.94931073455,474.083380031483
0.01171875,595.947582361444,474.082223511434
0.015625,595.948286987545,474.082364256001
0.01953125,595.958828385993,474.08366499152
0.0234375,595.958479613175,474.083098803943
0.02734375,595.955531697927,474.081382296487
0.03125,595.954649740685,474.078777167
0.03515625,595.956840038998,474.077895954087
0.0390625,595.969645982772,474.083302597921
0.04296875,595.963883602957,474.080349172242
0.046875,595.967485666755,474.085754709312
0.05078125,595.964640791924,474.079413043868
0.0546875,595.961069460588,474.082005578567
0.05859375,595.96762861356,474.08086231339
0.0625,595.959773601777,474.080278639836
0.06640625,595.96913399015,474.080131569895
0.0703125,595.974481688829,474.080916082527
0.07421875,595.955739590122,474.08157379262
0.078125,595.958975425653,474.081291102835
0.08203125,595.957053157251,474.080152109691
0.0859375,595.955184883427,474.076959342896
0.08984375,595.951383017342,474.078533207363
0.09375,595.946729883047,474.079193805893
0.09765625,595.946151809188,474.075877845559
0.1015625,595.940588169281,474.079769193203
0.10546875,595.946352972719,474.078184971934
0.109375,595.93641069498,474.080923642046
0.11328125,595.936258569344,474.077754651879
0.1171875,595.938240050507,474.077679416464
0.12109375,595.944622227425,474.080635044419
0.125,595.938395971149,474.080636391716
0.12890625,595.919100970283,474.079627153547
0.1328125,595.920721561885,474.080996369206
0.13671875,595.925654789079,474.078618081455
0.140625,595.915059715604,474.07861698611
0.14453125,595.9212543649,474.077031047833
0.1484375,595.916712223946,474.078976689071
0.15234375,595.909431784946,474.076959127356
0.15625,595.928100034171,474.078976646293
0.16015625,595.927820451733,474.078977594254
0.1640625,595.934668654331,474.077319575571
0.16796875,595.914631563608,474.078969516219
0.171875,595.915047126229,474.07933812465
0.17578125,595.916042304833,474.07854524064
0.1796875,595.923154755914,474.079770345161
0.18359375,595.937623511188,474.07775421595
0.1875,595.934848817262,474.077679417336
0.19140625,595.932559733462,474.078034950241
0.1953125,595.914630050848,474.078472596742
0.19921875,595.931057838351,474.076814747489
0.203125,595.925989875968,474.077166980579
0.20703125,595.923458662167,474.078832637051
0.2109375,595.919842729359,474.075517375967
0.21484375,595.918300658901,474.076813305426
0.21875,595.929257344051,474.076525601107
0.22265625,595.917368547193,474.076669631017
0.2265625,595.923994598631,474.075660497142
0.23046875,595.915768671555,474.075871269767
0.234375,595.912315058445,474.078183172817
0.23828125,595.918110480265,474.074652055753
0.2421875,595.920500300109,474.078452948399
0.24609375,595.923852421573,474.079338002828
0.25,595.92212357759,474.076094360297
0.25390625,595.928538275888,474.077750684947
0.2578125,595.911745720086,474.077751526565
0.26171875,595.926802964799,474.079409482304
0.265625,595.922044058188,474.07825696903
0.26953125,595.916962561112,474.079193478841
0.2734375,595.915343676852,474.075589725006
0.27734375,595.916929129911,474.07657937737
0.28125,595.915560348049,474.078760346735
0.28515625,595.924570180844,474.076670783753
0.2890625,595.920610204764,474.078688063416
0.29296875,595.922770672919,474.076094084335
0.296875,595.909796686103,474.077173988784
0.30078125,595.916854139017,474.076679192493
0.3046875,595.909721549443,474.075459052163
0.30859375,595.915556561041,474.07436217909
0.3125,595.905107513874,474.077605573107
0.31640625,595.913343425248,474.077607283307
0.3203125,595.915730044569,474.078256032721
0.32421875,595.922264113163,474.077757862245
0.328125,595.914770327681,474.077318946064
0.33203125,595.916424208427,474.078544206271
0.3359375,595.90330600923,474.077896118286
0.33984375,595.917125731519,474.079697833723
0.34375,595.927744680291,474.077766410492
0.34765625,595.920008408867,474.077030511809
0.3515625,595.909577564529,474.077738442061
0.35546875,595.911015188016,474.079179067886
0.359375,595.908853511084,474.080059141715
0.36328125,595.921187443242,474.078257363931
0.3671875,595.92421347758,474.078749745343
0.37109375,595.910489907024,474.081356329941
0.375,595.904022087499,474.080441092847
0.37890625,595.914452405196,474.075950689384
0.3828125,595.929256867679,474.076441702899
0.38671875,595.913520568491,474.079171935163
0.390625,595.90743885862,474.080265399862
0.39453125,595.9061841372,474.080842077946
0.3984375,595.923699534296,474.08207828157
0.40234375,595.92342536638,474.0791955949
0.40625,595.923069873064,474.080995977382
0.41015625,595.909398285705,474.079128112387
0.4140625,595.90798717944,474.07890552277
0.41796875,595.913310576998,474.079187739153
0.421875,595.92028047599,474.080191180651
0.42578125,595.929835841914,474.080996714592
0.4296875,595.912578269433,474.080204119917
0.43359375,595.911053412939,474.08243814162
0.4375,595.896815694519,474.082157953964
0.44140625,595.897088623255,474.080139490246
0.4453125,595.912809968443,474.079843124282
0.44921875,595.899628447586,474.081933362694
0.453125,595.899981155683,474.080276758326
0.45703125,595.896663392031,474.082366081616
0.4609375,595.886283324465,474.079556220333
0.46484375,595.891251700315,474.081995149643
0.46875,595.885055867933,474.082439320561
0.47265625,595.891034736399,474.079988750954
0.4765625,595.890317500667,474.080762363228
0.48046875,595.892590335469,474.084240658609
0.484375,595.895148187048,474.080638548672
0.48828125,595.877850470622,474.083285184336
0.4921875,595.881545601219,474.084156395134
0.49609375,595.884132632808,474.085323799281
0.5,595.891438108945,474.083522344822
0.50390625,595.898755614781,474.084314111955
0.5078125,595.902504834098,474.084026283864
0.51171875,595.91066282537,474.084602730107
0.515625,595.92218977893,474.083882307769
0.51953125,595.912968928773,474.087341577689
0.5234375,595.932640376625,474.083667758471
0.52734375,595.925468039515,474.086895224068
0.53125,595.924526285043,474.087485992342
0.53515625,595.917150529425,474.087560049752
0.5390625,595.924498126742,474.086269337402
0.54296875,595.915132766255,474.085980186801
0.546875,595.929542225189,474.084603838508
0.55078125,595.922620614814,474.087621167613
0.5546875,595.919529108762,474.087984723478
0.55859375,595.902947668461,474.089290287233
0.5625,595.912823573013,474.087777387168
0.56640625,595.938396689264,474.087992660386
0.5703125,595.999456002236,474.086335054415
0.57421875,596.045469797182,474.087688376213
0.578125,596.065609679178,474.088551984784
0.58203125,596.090301492391,474.090660218021
0.5859375,596.150739411436,474.089219789896
0.58984375,596.170070825982,474.090508134566
0.59375,596.141785380304,474.090871196207
0.59765625,596.088239392988,474.091443583145
0.6015625,595.988154409917,474.092535918156
0.60546875,595.959151040372,474.092184536053
0.609375,595.941602129712,474.090590083543
0.61328125,595.94649659539,474.094481185193
0.6171875,595.943982973733,474.092321517558
0.62109375,595.943759251574,474.094049877083
0.625,595.950606210884,474.091600504168
0.62890625,595.932058020739,474.096139530723
0.6328125,595.914845734788,474.091615062161
0.63671875,595.921901658677,474.091094162728
0.640625,595.917509862925,474.094517279208
0.64453125,595.92990355394,474.096475151594
0.6484375,595.921850317024,474.098305400852
0.65234375,595.906624335232,474.097597373111
0.65625,595.926222188914,474.096663752646
0.66015625,595.928981972428,474.095349835403
0.6640625,595.939642042847,474.095559650758
0.66796875,595.932560208848,474.097727836432
0.671875,595.923136900415,474.097152636687
0.67578125,595.9268095832,474.09808918374
0.6796875,595.933514468548,474.095711442378
0.68359375,595.932392364376,474.098088195631
0.6875,595.927390593743,474.098019176086
0.69140625,595.928230226326,474.097873538585
0.6953125,595.933831586162,474.097873460993
0.69921875,595.946348796432,474.097296886417
0.703125,595.943833075145,474.097366612565
0.70703125,595.945993460332,474.098076504413
0.7109375,595.937026101988,474.099165743164
0.71484375,595.93539357286,474.099382121549
0.71875,595.935532975931,474.101389114315
0.72265625,595.948654320154,474.102200467018
0.7265625,595.932318701435,474.099177914212
0.73046875,595.924289419686,474.099027444507
0.734375,595.93926339571,474.100457627035
0.73828125,595.954982037317,474.10097450785
0.7421875,595.95573119819,474.10069161109
0.74609375,595.948805137305,474.100261502512
0.75,595.94569472675,474.099617524243
0.75390625,595.940300260289,474.098378991612
0.7578125,595.957288991746,474.099375371871
0.76171875,595.957878392407,474.100036829343
0.765625,595.967624660289,474.099892971145
0.76953125,595.967070915945,474.101389645859
0.7734375,595.960712124845,474.102265966301
0.77734375,595.964666401262,474.102554337932
0.78125,595.971594370399,474.10364251128
0.78515625,595.966337112431,474.102420089812
0.7890625,595.970152897986,474.102345021821
0.79296875,595.956544198919,474.104579126107
0.796875,595.953136146731,474.100689072372
0.80078125,595.967620697479,474.105298563357
0.8046875,595.965453042209,474.103302639945
0.80859375,595.955665596479,474.102417467785
0.8125,595.955731332686,474.103858477311
0.81640625,595.95227213806,474.103499217789
0.8203125,595.958467368801,474.106525790536
0.82421875,595.952346291259,474.104394293267
0.828125,595.956809839898,474.102801792297
0.83203125,595.936057841571,474.101336008933
0.8359375,595.941158957091,474.105010729188
0.83984375,595.937972733804,474.104729065588
0.84375,595.934384391349,474.104508752949
0.84765625,595.928015687942,474.10840025967
0.8515625,595.926003143002,474.105448495967
0.85546875,595.905261162014,474.107968556139
0.859375,595.905822777715,474.106168828933
0.86328125,595.903805372015,474.106237375447
0.8671875,595.904857208737,474.107606719575
0.87109375,595.909714510947,474.107679828311
0.875,595.831310466485,474.109267480224
0.87890625,595.839897320811,474.106962580887
0.8828125,595.835132261712,474.109050687036
0.88671875,595.832188358436,474.108403727365
0.890625,595.838881700763,474.108403218794
0.89453125,595.85525574479,474.109324268005
0.8984375,595.849477924234,474.110422033209
0.90234375,595.838396141686,474.108116554617
0.90625,595.840839695755,474.109253755917
0.91015625,595.83583305873,474.109985762952
0.9140625,595.825414003354,474.110129997304
0.91796875,595.83311998798,474.111359298141
0.921875,595.843697758173,474.108982085459
0.92578125,595.847958703127,474.110466008548
0.9296875,595.848774729575,474.112508711111
0.93359375,595.840794956974,474.112655598451
0.9375,595.826786351272,474.112868393651
0.94140625,595.837216384711,474.114892638826
0.9453125,595.846318249672,474.112660200871
0.94921875,595.840087859722,474.114459968367
0.953125,595.83878587991,474.110786226095
0.95703125,595.83147115417,474.111132869816
0.9609375,595.842851694885,474.115529117868
0.96484375,595.839816931788,474.115900440848
0.96875,595.836011635306,474.116044957212
0.97265625,595.859585440345,474.116328683906
0.9765625,595.879557915164,474.117777970703
0.98046875,595.890095900095,474.117148646318
0.984375,595.884720126265,474.112877966652
0.98828125,595.883826431372,474.114424430485
0.9921875,595.886309232395,474.11806512365
0.99609375,595.888657016205,474.115833607365
1,595.885408156961,474.116397817391
1.00390625,595.880367350801,474.117110040267
1.0078125,595.890813152254,474.120661265466
1.01171875,595.874571917185,474.120033590498
1.015625,595.866088120996,474.115979088239
1.01953125,595.88525235056,474.119196434435
1.0234375,595.881003269907,474.120069572587
1.02734375,595.877973220432,474.121384300202
1.03125,595.873371327732,474.120304208087
1.03515625,595.874699084946,474.12217684275
1.0390625,595.882854597266,474.120016655651
1.04296875,595.883825796817,474.120951578531
1.046875,595.88149193565,474.120592083161
1.05078125,595.878481927243,474.123474148576
1.0546875,595.873227632123,474.122467808235
1.05859375,595.881798062053,474.124916954483
1.0625,595.908328385055,474.123694070338
1.06640625,595.893962710933,474.124485652004
1.0703125,595.893081321752,474.123777684065
1.07421875,595.889282055623,474.123044331824
1.078125,595.887269669554,474.125169742406
1.08203125,595.879720837171,474.12736993982
1.0859375,595.880415436863,474.124292209863
1.08984375,595.88437628011,474.123549055037
1.09375,595.885242975039,474.124260329435
1.09765625,595.89128773971,474.124702481641
1.1015625,595.892552350767,474.123765959036
1.10546875,595.88289818007,474.124399452759
1.109375,595.87495952788,474.125612972833
1.11328125,595.87819773077,474.127874527141
1.1171875,595.873012526882,474.127083430828
1.12109375,595.882735582449,474.129965003321
1.125,595.880199298278,474.129543987669
1.12890625,595.876894260844,474.128898679787
1.1328125,595.872778229329,474.128029430571
1.13671875,595.86990819721,474.127659867914
1.140625,595.874493931159,474.129389041039
1.14453125,595.881838486713,474.126724535585
1.1484375,595.883104421303,474.130036673896
1.15234375,595.86746882514,474.128250146566
1.15625,595.867667012537,474.127804121166
1.16015625,595.86788710956,474.130213370453
1.1640625,595.866490149192,474.13256256454
1.16796875,595.85412288246,474.132347798814
1.171875,595.840993936463,474.132707873278
1.17578125,595.851838773343,474.131785410897
1.1796875,595.852714958342,474.131062137833
1.18359375,595.860091759926,474.130328641213
1.1875,595.856946235886,474.133316747188
1.19140625,595.842789361068,474.135054350057
1.1953125,595.832265084428,474.137250444637
1.19921875,595.843794767559,474.132915553149
1.203125,595.849858248306,474.130041283603
1.20703125,595.86232480979,474.134651150283
1.2109375,595.851958197971,474.132782105111
1.21484375,595.853066037572,474.136382995352
1.21875,595.861705722077,474.135615901369
1.22265625,595.876073037815,474.132278237003
1.2265625,595.87971360975,474.135857325385
1.23046875,595.857663575002,474.136602467628
1.234375,595.852527527456,474.135810199505
1.23828125,595.873617181968,474.137250485085
1.2421875,595.874215022178,474.135162351639
1.24609375,595.882446009902,474.136529338058
1.25,595.885411380575,474.135233719861
1.25390625,595.873045846023,474.135304516588
1.2578125,595.872214829891,474.132926873994
1.26171875,595.886840978184,474.139120994451
1.265625,595.879749382559,474.137253696034
1.26953125,595.874957893832,474.139413412557
1.2734375,595.875513243888,474.138494636686
1.27734375,595.881068522902,474.137633538881
1.28125,595.881445975425,474.135810825461
1.28515625,595.878440690389,474.138979657589
1.2890625,595.860762846816,474.137829982315
1.29296875,595.8636755508,474.139558053955
1.296875,595.896779384734,474.13877152067
1.30078125,595.936733221323,474.138622244235
1.3046875,595.988340089878,474.13982363924
1.30859375,596.019158353894,474.141289677794
1.3125,596.031442253904,474.140660176297
1.31640625,596.10053395539,474.138335667995
1.3203125,596.13169179098,474.138542681048
1.32421875,596.119286832444,474.141648301177
1.328125,596.022639037919,474.140786701882
1.33203125,595.893298949751,474.143307544466
1.3359375,595.848364687849,474.142602455143
1.33984375,595.868793475997,474.14186814366
1.34375,595.889684444774,474.143740915317
1.34765625,595.90087647712,474.141077040582
1.3515625,595.910288745499,474.143282931245
1.35546875,595.897492309717,474.144293233455
1.359375,595.896829843925,474.146913995397
1.36328125,595.888727490987,474.146282644371
1.3671875,595.881811154862,474.145114030966
1.37109375,595.89022207268,474.148355243735
1.375,595.899398080697,474.147858309881
1.37890625,595.888165060902,474.147714574397
1.3828125,595.88920308255,474.144035013804
1.38671875,595.893486584815,474.14770567609
1.390625,595.890752653471,474.147133134367
1.39453125,595.893991892224,474.148354864885
1.3984375,595.888375682463,474.148428455327
1.40234375,595.905084460927,474.148863041789
1.40625,595.898761953873,474.145909565906
1.41015625,595.899457489754,474.149508741999
1.4140625,595.901094024561,474.145694134882
1.41796875,595.904378129244,474.148932149063
1.421875,595.904236696895,474.147494673702
1.42578125,595.906541984122,474.148357681755
1.4296875,595.905430219931,474.148007655128
1.43359375,595.892926039713,474.147133278476
1.4375,595.914022489518,474.148850688038
1.44140625,595.908353568874,474.149223886465
1.4453125,595.914921322964,474.146596947183
1.44921875,595.92209354564,474.144825755826
1.453125,595.922821355855,474.149147281656
1.45703125,595.926662688745,474.147639014937
1.4609375,595.908223232016,474.148422078106
1.46484375,595.921819454569,474.148710065305
1.46875,595.92082561212,474.150304341412
1.47265625,595.924282582329,474.147640294092
1.4765625,595.922557324704,474.14770694286
1.48046875,595.925817365329,474.148718156961
1.484375,595.928243646229,474.146053637119
1.48828125,595.946193270369,474.149148535698
1.4921875,595.926490869379,474.148593166882
1.49609375,595.923566444647,474.145909065767
1.5,595.941320381258,474.149076312419
1.50390625,595.958820103105,474.14822715797
1.5078125,595.949034977224,474.14772488208
1.51171875,595.95615617935,474.145692048356
1.515625,595.945707300715,474.150516878459
1.51953125,595.943688029366,474.14677609426
1.5234375,595.953556685032,474.147611533481
1.52734375,595.942617514603,474.150519515777
1.53125,595.943093308377,474.14953940877
1.53515625,595.946208164051,474.147379037057
1.5390625,595.945790190186,474.146195690366
1.54296875,595.944861775304,474.15145390334
1.546875,595.94365762418,474.14764171553
1.55078125,595.932160067784,474.14850186374
1.5546875,595.929835294794,474.147517491477
1.55859375,595.922359612871,474.145907808901
1.5625,595.913040927592,474.147448577554
1.56640625,595.906699345462,474.151456163795
1.5703125,595.895886738237,474.146200993136
1.57421875,595.893271081109,474.147314657323
1.578125,595.887437464383,474.150879463878
1.58203125,595.887720357597,474.149586167762
1.5859375,595.87309690683,474.150521167299
1.58984375,595.877378587902,474.148260125981
1.59375,595.883388492815,474.145980300774
1.59765625,595.880367804101,474.150300857196
1.6015625,595.898733928594,474.149369393456
1.60546875,595.881394185338,474.150737022514
1.609375,595.890090501167,474.148598150461
1.61328125,595.88537805188,474.14785417425
1.6171875,595.884331509812,474.148063148838
1.62109375,595.887897769277,474.149006729679
1.625,595.889162393498,474.14691862958
1.62890625,595.87963924692,474.147202105867
1.6328125,595.868087850859,474.14727416395
1.63671875,595.866661838553,474.148192890017
1.640625,595.886471140202,474.14943939044
1.64453125,595.883540022185,474.148936175552
1.6484375,595.878820915024,474.149439824107
1.65234375,595.877480164025,474.146849843979
1.65625,595.882504411877,474.14677195587
1.66015625,595.886759937236,474.147968320243
1.6640625,595.892259759453,474.149799451571
1.66796875,595.883404026987,474.148072189552
1.671875,595.884617982017,474.15030318877
1.67578125,595.874246472614,474.149257768249
1.6796875,595.876687095001,474.145549626476
1.68359375,595.88237709269,474.147522206868
1.6875,595.89311994873,474.149727125585
1.69140625,595.887571791572,474.146343309222
1.6953125,595.878929483336,474.148494930167
1.69921875,595.88893451766,474.148641692618
1.703125,595.888321928114,474.151240406501
1.70703125,595.880013374759,474.149442640337
1.7109375,595.883293976379,474.150232788865
1.71484375,595.892039337339,474.147712607539
1.71875,595.87187888914,474.148059061736
1.72265625,595.885612137259,474.149150823224
1.7265625,595.88318393001,474.147711289325
1.73046875,595.874819586875,474.148974675384
1.734375,595.881270659518,474.151097281887
1.73828125,595.893262847141,474.150378903588
1.7421875,595.886074120866,474.152178805344
1.74609375,595.883474578842,474.149299791004
1.75,595.874602770067,474.149783970624
1.75390625,595.860615678771,474.152178414885
1.7578125,595.863844347244,474.150380275811
1.76171875,595.853331926779,474.15217877811
1.765625,595.87085766386,474.150740430367
1.76953125,595.881078251958,474.151458918075
1.7734375,595.872802015472,474.149383157181
1.77734375,595.873289716054,474.149007894578
1.78125,595.873512581953,474.150592350741
1.78515625,595.871484328976,474.150455669677
1.7890625,595.865873629984,474.148435952752
1.79296875,595.871198039331,474.148361313034
1.796875,595.871204837704,474.147350134959
1.80078125,595.877607083637,474.148640242962
1.8046875,595.877839927846,474.148787418416
1.80859375,595.866243411994,474.149070698145
1.8125,595.866297677506,474.150016378203
1.81640625,595.868533514921,474.147928567559
1.8203125,595.867023747035,474.14915034931
1.82421875,595.867309895647,474.147999489406
1.828125,595.864861314251,474.149798695565
1.83203125,595.86541298812,474.149591794065
1.8359375,595.872062100115,474.148794880301
1.83984375,595.871782187059,474.148722033334
1.84375,595.885046924324,474.146990501085
1.84765625,595.893339966098,474.14785261408
1.8515625,595.874155119769,474.146989425844
1.85546875,595.870773963662,474.149653268625
1.859375,595.888418583869,474.147640050347
1.86328125,595.878430232878,474.148717781334
1.8671875,595.882234401499,474.145550046254
1.87109375,595.871579616045,474.150299565971
1.875,595.871565445848,474.146472956993
1.87890625,595.890530938303,474.144249318655
1.8828125,595.8919030858,474.145445117529
1.88671875,595.888403125832,474.146914827996
1.890625,595.880574136254,474.146777740542
1.89453125,595.875109482049,474.143530688355
1.8984375,595.874960965407,474.14561516968
1.90234375,595.86962520623,474.144969756517
1.90625,595.877972968429,474.145473053945
1.91015625,595.873098189223,474.143024913784
1.9140625,595.869548891973,474.147271027367
1.91796875,595.881158822123,474.145332138749
1.921875,595.882690086879,474.147490201202
1.92578125,595.891818683663,474.145512013034
1.9296875,595.894138093623,474.143987350318
1.93359375,595.885131708465,474.142806220403
1.9375,595.873379620208,474.145109973245
1.94140625,595.882453529763,474.145113127841
1.9453125,595.893358687914,474.141962120172
1.94921875,595.897526355407,474.141435222552
1.953125,595.895852439579,474.142066378724
1.95703125,595.891311675717,474.143164719406
1.9609375,595.889524977821,474.142534844978
1.96484375,595.904504287957,474.141364018569
1.96875,595.897927589058,474.144361600949
1.97265625,595.887010592946,474.145184724783
1.9765625,595.896272461334,474.142855593434
1.98046875,595.903076925988,474.14064356372
1.984375,595.900073487844,474.140988466222
1.98828125,595.89963868795,474.143654033297
1.9921875,595.877312007582,474.144031091909
1.99609375,595.872433888233,474.141528158536
2,595.880989705553,474.141016882034
2.00390625,595.918446169789,474.139944878597
2.0078125,595.933876232799,474.13876753406
2.01171875,595.98425890097,474.139542827473
2.015625,596.022470922647,474.14028031211
2.01953125,596.049365696558,474.139231908198
2.0234375,596.119827947946,474.136821826313
2.02734375,596.164054725914,474.136888194342
2.03125,596.137468435858,474.140299651853
2.03515625,596.072421781456,474.142082635418
2.0390625,595.951937972367,474.139491355446
2.04296875,595.876820065138,474.141144051904
2.046875,595.879739310162,474.14080061533
2.05078125,595.903101804896,474.13538416866
2.0546875,595.914108798931,474.135724261057
2.05859375,595.914045189549,474.137393997045
2.0625,595.923047244824,474.136691926022
2.06640625,595.9221613034,474.135882345552
2.0703125,595.90802313493,474.136514563378
2.07421875,595.898907172623,474.137323181302
2.078125,595.902614783882,474.136531808332
2.08203125,595.909133742975,474.136808139004
2.0859375,595.908132588992,474.138619783869
2.08984375,595.917133124574,474.133509037903
2.09375,595.905166245067,474.135301933795
2.09765625,595.901426400642,474.133588943947
2.1015625,595.916258996109,474.133213299146
2.10546875,595.902886077454,474.133910480473
2.109375,595.905738671746,474.135951213415
2.11328125,595.91093811401,474.134513382516
2.1171875,595.902590191208,474.135951535299
2.12109375,595.906073704907,474.132496993094
2.125,595.913747736881,474.134364215414
2.12890625,595.897146145205,474.13267340619
2.1328125,595.891899250608,474.131122998151
2.13671875,595.889741755442,474.13378604013
2.140625,595.890713946082,474.132728431828
2.14453125,595.894501750338,474.131987645549
2.1484375,595.897043991337,474.134003359364
2.15234375,595.89922985669,474.132191010513
2.15625,595.90015967547,474.127665134241
2.16015625,595.911000477395,474.130684220533
2.1640625,595.908783587919,474.129464588835
2.16796875,595.920590167558,474.13054291378
2.171875,595.920539220531,474.12781941701
2.17578125,595.915783171919,474.127515626553
2.1796875,595.92528150361,474.128523609439
2.18359375,595.914638380252,474.126826966605
2.1875,595.925495771296,474.125641352232
2.19140625,595.924054025709,474.126645506038
2.1953125,595.917299614294,474.126722070079
2.19921875,595.917497297721,474.126514799687
2.203125,595.932557385554,474.123841146581
2.20703125,595.918970424905,474.124394630525
2.2109375,595.921973781793,474.12607089131
2.21484375,595.918954038524,474.12276055145
2.21875,595.932127103164,474.125275757087
2.22265625,595.930131347076,474.124090956667
2.2265625,595.941145667069,474.121709036831
2.23046875,595.925892565312,474.120592695661
2.234375,595.918666818531,474.122608024007
2.23828125,595.931614830139,474.122054300222
2.2421875,595.936464976568,474.120233544117
2.24609375,595.936619073808,474.120715934885
2.25,595.926320437592,474.124048855313
2.25390625,595.921599416628,474.118220986742
2.2578125,595.914777162536,474.119966094264
2.26171875,595.91469736696,474.122464148689
2.265625,595.908421669165,474.119370630655
2.26953125,595.902521936574,474.121669933449
2.2734375,595.893864043433,474.119369371408
2.27734375,595.893782073091,474.120589827005
2.28125,595.890387280869,474.118431579142
2.28515625,595.887795300927,474.119333430055
2.2890625,595.896001551372,474.122030678891
2.29296875,595.887070832252,474.119709284405
2.296875,595.882675929983,474.117420787176
2.30078125,595.891960933638,474.118205058747
2.3046875,595.881175076934,474.118355901084
2.30859375,595.886702026825,474.116926618213
2.3125,595.885414893368,474.116634726525
2.31640625,595.887644942648,474.11584773864
2.3203125,595.882392230851,474.115269680401
2.32421875,595.882887722596,474.114534383295
2.328125,595.880296396564,474.116665973423
2.33203125,595.885332443857,474.117561920988
2.3359375,595.880516408057,474.112162364656
2.33984375,595.882452636174,474.113443797918
2.34375,595.871871311044,474.113592639996
2.34765625,595.872685309294,474.113740061043
2.3515625,595.877256393804,474.112444158271
2.35546875,595.866550355434,474.115178135778
2.359375,595.866156537725,474.112878563299
2.36328125,595.873265455553,474.114962840072
2.3671875,595.876178787575,474.113022228723
2.37109375,595.85501259973,474.114891058782
2.375,595.863692304803,474.113781412408
2.37890625,595.873933971295,474.110211186253
2.3828125,595.870489386743,474.112654311119
2.38671875,595.872427662397,474.11062523895
2.390625,595.868796850496,474.107685489287
2.39453125,595.861837813083,474.109386919218
2.3984375,595.877565555288,474.110133494097
2.40234375,595.880294406996,474.108910133202
2.40625,595.883749958273,474.110958410826
2.41015625,595.869844533827,474.112368523672
2.4140625,595.866087076542,474.110395334526
2.41796875,595.867329445599,474.108709145566
2.421875,595.875159595966,474.108259323646
2.42578125,595.874205982954,474.108906972201
2.4296875,595.86256481874,474.107468089959
2.43359375,595.849294955769,474.109337611532
2.4375,595.865263639806,474.106604838097
2.44140625,595.85650706208,474.108400137514
2.4453125,595.864209199047,474.106531261375
2.44921875,595.868820402658,474.106888048258
2.453125,595.856027036023,474.103792761696
2.45703125,595.85101508306,474.104759155953
2.4609375,595.854630776664,474.108397919745
2.46484375,595.86433979937,474.10819625917
2.46875,595.860036725329,474.106157301031
2.47265625,595.859953907159,474.102854005489
2.4765625,595.867225569587,474.107601661241
2.48046875,595.865844639604,474.106313944504
2.484375,595.862482725183,474.108183599252
2.48828125,595.86521398571,474.102715123732
2.4921875,595.859675064028,474.105009476506
2.49609375,595.868880840643,474.103889086331
2.5,595.863209276678,474.102634941751
2.50390625,595.869750898494,474.104361372866
2.5078125,595.867817430539,474.102060562253
2.51171875,595.861618023047,474.103741152155
2.515625,595.855633335541,474.105804367529
2.51953125,595.856108955608,474.103874675627
2.5234375,595.86180375033,474.103581125762
2.52734375,595.86218939255,474.10279553512
2.53125,595.849158742368,474.102152466718
2.53515625,595.860519196683,474.100040234545
2.5390625,595.867951761909,474.100450529322
2.54296875,595.867264271529,474.105221859652
2.546875,595.865306526218,474.101746576156
2.55078125,595.847362285817,474.100417581491
2.5546875,595.854387853088,474.099821304764
2.55859375,595.848785076879,474.101150918488
2.5625,595.850497226034,474.10313580704
2.56640625,595.870881749691,474.101007615374
2.5703125,595.856037983545,474.100110052948
2.57421875,595.851159204171,474.101117118514
2.578125,595.864113457964,474.099137749537
2.58203125,595.863704970413,474.097946790868
2.5859375,595.867519726079,474.102121076782
2.58984375,595.865230746694,474.101427967993
2.59375,595.859454518384,474.100503796126
2.59765625,595.853339773976,474.097834212114
2.6015625,595.846000555209,474.097008711629
2.60546875,595.838621534125,474.098447800843
2.609375,595.83642143951,474.095066905443
2.61328125,595.834353111379,474.100531955174
2.6171875,595.843709298216,474.098900252492
2.62109375,595.833222077223,474.098538344344
2.625,595.831200015924,474.095066672563
2.62890625,595.830600881964,474.096068558865
2.6328125,595.832137300746,474.095566499692
2.63671875,595.834711269725,474.095915513998
2.640625,595.838024642163,474.096412534256
2.64453125,595.828231397898,474.097871246309
2.6484375,595.820223910043,474.09480807414
2.65234375,595.830077113039,474.09397959265
2.65625,595.828371119831,474.096826592925
2.66015625,595.828292517661,474.097728425581
2.6640625,595.835371546402,474.094921736969
2.66796875,595.839323014962,474.095333598174
2.671875,595.823921930494,474.096420755691
2.67578125,595.83330530022,474.096647210563
2.6796875,595.852065809369,474.093849579184
2.68359375,595.845613865653,474.09361844205
2.6875,595.857263392255,474.094410130947
2.69140625,595.849685266135,474.091964120736
2.6953125,595.842725078564,474.09230423875
2.69921875,595.845866943045,474.094839976519
2.703125,595.850283676316,474.093404658841
2.70703125,595.835604692638,474.09736107687
2.7109375,595.847526208343,474.093913345422
2.71484375,595.845333177752,474.09504736421
2.71875,595.836744649595,474.095348944542
2.72265625,595.850191707249,474.094632531911
2.7265625,595.839374067465,474.094555921268
2.73046875,595.830034479409,474.094987766045
2.734375,595.847236338797,474.09287342875
2.73828125,595.897047624086,474.091267347106
2.7421875,595.935147114449,474.090373766137
2.74609375,595.98048182499,474.094331857701
2.75,595.974998562387,474.093087926452
2.75390625,596.018062055057,474.090051741634
2.7578125,596.047076982947,474.089075521533
2.76171875,596.04456764181,474.091710330964
2.765625,596.006901996785,474.09245554894
2.76953125,595.941331394901,474.092670824074
2.7734375,595.891219433286,474.095056341831
2.77734375,595.882919189068,474.095060717471
2.78125,595.876909985894,474.089446228477
2.78515625,595.871063113739,474.089778519627
2.7890625,595.865563808255,474.095698637009
2.79296875,595.851895831328,474.091319035251
2.796875,595.845247986229,474.092606031853
2.80078125,595.855354668368,474.092608582092
2.8046875,595.865710341142,474.091988016513
2.80859375,595.855286600067,474.088143862468
2.8125,595.863975368727,474.089176357669
2.81640625,595.862425880464,474.092602933831
2.8203125,595.861993774774,474.091199436778
2.82421875,595.85477487564,474.090085660536
2.828125,595.861886920338,474.092531574336
2.83203125,595.849794456316,474.090778647264
2.8359375,595.839483998129,474.089176419098
2.83984375,595.85738308181,474.088300614892
2.84375,595.857645821117,474.087632998686
2.84765625,595.852156021244,474.08882160692
2.8515625,595.847542838119,474.090442660762
2.85546875,595.845889906584,474.088141684323
2.859375,595.836299517659,474.088833831062
2.86328125,595.832623453176,474.090154442038
2.8671875,595.843200214703,474.089031579787
2.87109375,595.838230735844,474.087994119642
2.875,595.823124859197,474.089072425356
2.87890625,595.828762867013,474.088016536305
2.8828125,595.836791351852,474.08727246566
2.88671875,595.830270506685,474.088639109392
2.890625,595.823839794468,474.086986479584
2.89453125,595.823604722239,474.088566533097
2.8984375,595.828753967812,474.087058307288
2.90234375,595.839391095873,474.088033150957
2.90625,595.840912514768,474.08950519926
2.91015625,595.836702606676,474.086077339746
2.9140625,595.832337124255,474.085469056213
2.91796875,595.841615805536,474.085684460047
2.921875,595.841634969906,474.085181094256
2.92578125,595.849623905122,474.087051336451
2.9296875,595.849024023887,474.084032377101
2.93359375,595.833372519416,474.085681472798
2.9375,595.854572631414,474.084317443603
2.94140625,595.85420460147,474.087769235055
2.9453125,595.85036910071,474.084321792692
2.94921875,595.850636633943,474.086905550455
2.953125,595.852907462591,474.085759437864
2.95703125,595.854405003198,474.086044911248
2.9609375,595.86375867276,474.083094704013
2.96484375,595.862608094783,474.085679457507
2.96875,595.852544929085,474.083093975992
2.97265625,595.850858597697,474.083436222852
2.9765625,595.845974837368,474.084163074605
2.98046875,595.843728967953,474.084308062114
2.984375,595.850491636456,474.085322344518
2.98828125,595.841234502043,474.083669013319
2.9921875,595.825504139828,474.084219273581
2.99609375,595.828889990579,474.085970331354
3,595.835494036832,474.084357394071
3.00390625,595.823270044983,474.082874147148
3.0078125,595.82964912043,474.083502487312
3.01171875,595.807424832312,474.084209465763
3.015625,595.81000011649,474.088993209123
3.01953125,595.821059966338,474.082885267605
3.0234375,595.819845768165,474.085750860113
3.02734375,595.805027238307,474.08100722139
3.03125,595.814568758631,474.081685743171
3.03515625,595.813365924571,474.085395819409
3.0390625,595.819297732864,474.087413450556
3.04296875,595.820214056503,474.083549613252
3.046875,595.814449308893,474.083094448195
3.05078125,595.801700981399,474.082950501132
3.0546875,595.80822843111,474.08232309024
3.05859375,595.80558348115,474.079703694481
3.0625,595.802423452766,474.081713819863
3.06640625,595.798533338819,474.081649786095
3.0703125,595.795091370765,474.080206703754
3.07421875,595.793963754548,474.083154181949
3.078125,595.806196433406,474.080645528829
3.08203125,595.804712008633,474.080564326536
3.0859375,595.810753603511,474.082579239266
3.08984375,595.800620106475,474.080245530586
3.09375,595.801965063275,474.079195148816
3.09765625,595.800528810772,474.082196844258
3.1015625,595.805170728699,474.082655394245
3.10546875,595.816876746789,474.079345524803
3.109375,595.812172199635,474.079406518395
3.11328125,595.809039982621,474.082360858656
3.1171875,595.81072713773,474.08146609522
3.12109375,595.811919314242,474.079197948868
3.125,595.80976565865,474.080037029094
3.12890625,595.809685146324,474.080779607336
3.1328125,595.816521383609,474.080204946952
3.13671875,595.799769893538,474.080415031468
3.140625,595.810814186483,474.080557809314
3.14453125,595.809125653335,474.081284050472
3.1484375,595.790611905364,474.080660858713
3.15234375,595.794276718122,474.079291515849
3.15625,595.799075798929,474.078617791103
3.16015625,595.794981514416,474.079030376687
3.1640625,595.80029723067,474.080902763972
3.16796875,595.78966938085,474.08135715531
3.171875,595.777537060221,474.076680284343
3.17578125,595.77930274894,474.078972361874
3.1796875,595.793635113542,474.077538432321
3.18359375,595.79547551563,474.078939555804
3.1875,595.794578156383,474.080201866519
3.19140625,595.791876080291,474.073583584255
3.1953125,595.793598022839,474.079325061389
3.19921875,595.792912310309,474.07825885258
3.203125,595.790217495698,474.078616161136
3.20703125,595.796112692584,474.078473072842
3.2109375,595.79547861886,474.078746939306
3.21484375,595.801017731821,474.081208121632
3.21875,595.800207119695,474.07776123403
3.22265625,595.794081668946,474.075374711357
3.2265625,595.791040035858,474.079544912393
3.23046875,595.790317347029,474.078929425338
3.234375,595.786397863848,474.077681587979
3.23828125,595.793513292711,474.07875872167
3.2421875,595.786406355115,474.077034323089
3.24609375,595.792468270826,474.078220105384
3.25,595.795689450416,474.079527881352
3.25390625,595.787994447568,474.080274817026
3.2578125,595.794164495419,474.079853257555
3.26171875,595.77993224999,474.07955497464
3.265625,595.792994292526,474.082720497072
3.26953125,595.789759898083,474.076623044568
3.2734375,595.783443984522,474.076381399704
3.27734375,595.797721711428,474.079115399525
3.28125,595.798361497595,474.077538888934
3.28515625,595.795081248387,474.079190045854
3.2890625,595.794429564505,474.07814453938
3.29296875,595.775148504265,474.076960041454
3.296875,595.774346108798,474.0801240531
3.30078125,595.795786811116,474.078806187796
3.3046875,595.79170337556,474.076961243242
3.30859375,595.775460092337,474.077893548008
3.3125,595.777492891741,474.076672619911
3.31640625,595.786118180805,474.078612351418
3.3203125,595.788798834019,474.076924421573
3.32421875,595.798486603663,474.075915557208
3.328125,595.791435829019,474.073572880512
3.33203125,595.775842792041,474.079172946171
3.3359375,595.771681506178,474.079332525002
3.33984375,595.775202465312,474.079698108077
3.34375,595.768919747813,474.078259841024
3.34765625,595.761633075542,474.078975855428
3.3515625,595.758554645302,474.07768253521
3.35546875,595.765889521471,474.079190307153
3.359375,595.755978574595,474.074517404566
3.36328125,595.757753149216,474.074984904893
3.3671875,595.750203083598,474.079904030544
3.37109375,595.75651607814,474.079915175428
3.375,595.751063533777,474.079503262906
3.37890625,595.754719461252,474.077179581638
3.3828125,595.751850558534,474.078109854361
3.38671875,595.771412713517,474.077320734393
3.390625,595.766712224654,474.079117433327
3.39453125,595.769578416065,474.078258491974
3.3984375,595.762534879639,474.079839161932
3.40234375,595.779856216761,474.077756657388
3.40625,595.778043928107,474.078470973603
3.41015625,595.768740128963,474.078400798886
3.4140625,595.780662698024,474.07912006067
3.41796875,595.775656117466,474.076100191837
3.421875,595.791902844119,474.077963252457
3.42578125,595.786805526987,474.076529027774
3.4296875,595.783281102275,474.078633696497
3.43359375,595.781631923597,474.080273352818
3.4375,595.786932125157,474.077537037872
3.44140625,595.79380661082,474.075302761654
3.4453125,595.785516656329,474.078138315855
3.44921875,595.782645027623,474.079120663571
3.453125,595.779975232532,474.07509310469
3.45703125,595.787335884331,474.078320400888
3.4609375,595.814824326427,474.07763832668
3.46484375,595.878034154727,474.075592059348
3.46875,595.903110665615,474.076437164532
3.47265625,595.932046164035,474.076813460762
3.4765625,595.95074110075,474.07520784481
3.48046875,596.008044795816,474.073283242642
3.484375,596.005846464931,474.073347991687
3.48828125,595.961097081884,474.078963495758
3.4921875,595.914243718789,474.078977594254
3.49609375,595.834013042687,474.076819436002
3.5,595.822871667695,474.07750269597
3.50390625,595.81765710772,474.079910062154
3.5078125,595.809496289533,474.079051912399
3.51171875,595.805003455992,474.08056041045
3.515625,595.815428165491,474.078190322231
3.51953125,595.805144263002,474.08012657731
3.5234375,595.802355462379,474.078231047549
3.52734375,595.797834500371,474.076973033549
3.53125,595.785765546939,474.076670046007
3.53515625,595.793078208994,474.077634901421
3.5390625,595.787227610697,474.080630068473
3.54296875,595.786606758384,474.078766048821
3.546875,595.794429849883,474.079045752446
3.55078125,595.803323164411,474.079121749644
3.5546875,595.797230113784,474.078568242389
3.55859375,595.786338534262,474.077321303023
3.5625,595.787150659116,474.077750405053
3.56640625,595.7885592811,474.077259742832
3.5703125,595.793950683487,474.076886641829
3.57421875,595.777777433733,474.077372324282
3.578125,595.787355292173,474.078155140065
3.58203125,595.794688520814,474.079459553494
3.5859375,595.801883825856,474.079968710288
3.58984375,595.796572899434,474.08085104471
3.59375,595.80021060985,474.079414093624
3.59765625,595.803045449249,474.079698053583
3.6015625,595.802258642487,474.079494386854
3.60546875,595.80405486974,474.076389003681
3.609375,595.79202098286,474.078339446089
3.61328125,595.789349804547,474.080344497656
3.6171875,595.796458916068,474.080279944815
3.62109375,595.805413792917,474.07718263532
3.625,595.798524555946,474.077939953568
3.62890625,595.79885088973,474.079008392086
3.6328125,595.799835813433,474.080993045867
3.63671875,595.801859700314,474.079086774267
3.640625,595.817148529313,474.078271520884
3.64453125,595.814356242122,474.077903942092
3.6484375,595.806816316138,474.077689962314
3.65234375,595.81241620631,474.076600149286
3.65625,595.822585364874,474.078960004705
3.66015625,595.828428045193,474.079193730134
3.6640625,595.8183667321,474.076101036791
3.66796875,595.820715630391,474.079041794598
3.671875,595.823239535347,474.078114656327
3.67578125,595.814612638473,474.081348878244
3.6796875,595.818302789579,474.08038369583
3.68359375,595.831508034371,474.078980258926
3.6875,595.821052629969,474.081351179972
3.69140625,595.820735377265,474.080947014326
3.6953125,595.816620394724,474.078478733841
3.69921875,595.810202418972,474.080055115824
3.703125,595.816591357693,474.078261267581
3.70703125,595.807098435693,474.080989567645
3.7109375,595.797585245824,474.07718496049
3.71484375,595.804896620876,474.079357236578
3.71875,595.806725910348,474.080706453929
3.72265625,595.798682691873,474.080288243898
3.7265625,595.784686978018,474.079915806552
3.73046875,595.785953523236,474.081929059969
3.734375,595.770709254057,474.079273405175
3.73828125,595.784279206639,474.081136095601
3.7421875,595.787035726019,474.07970277017
3.74609375,595.77720014325,474.080849576459
3.75,595.770317686722,474.080133528149
3.75390625,595.780663568765,474.080706923076
3.7578125,595.769040818858,474.079937956945
3.76171875,595.790369336073,474.079267225313
3.765625,595.779472458224,474.079913379143
3.76953125,595.760464757865,474.078548671468
3.7734375,595.762740146253,474.080918265278
3.77734375,595.764605940949,474.079126847324
3.78125,595.758208080345,474.080919868418
3.78515625,595.768618711284,474.078623423693
3.7890625,595.750739694663,474.080774598992
3.79296875,595.756271122706,474.079054544667
3.796875,595.771642362292,474.079878838604
3.80078125,595.770571784397,474.08171424637
3.8046875,595.768137950765,474.080783261075
3.80859375,595.76619904786,474.08459233328
3.8125,595.769288255076,474.082437488828
3.81640625,595.76339963375,474.080207706758
3.8203125,595.767353221225,474.082098626163
3.82421875,595.76871816751,474.083518885832
3.828125,595.767745384715,474.079062340912
3.83203125,595.76648667258,474.081207335799
3.8359375,595.766892343456,474.084012649262
3.83984375,595.772333688084,474.084163080129
3.84375,595.773406641161,474.08493963532
3.84765625,595.77188389152,474.085683562521
3.8515625,595.769268964417,474.083167832736
3.85546875,595.762700414701,474.086540718172
3.859375,595.762229528426,474.084177151124
3.86328125,595.76340052331,474.084381031355
3.8671875,595.766477222529,474.08452294159
3.87109375,595.765693170335,474.086185250275
3.875,595.77066860325,474.082953593971
3.87890625,595.780814342305,474.084748076436
3.8828125,595.77967700596,474.087626226947
3.88671875,595.771002877443,474.084108407757
3.890625,595.770523507355,474.087478184012
3.89453125,595.773615308179,474.086725259117
3.8984375,595.76607339887,474.085501036525
3.90234375,595.778437476293,474.084604616189
3.90625,595.779483820283,474.088088569284
3.91015625,595.788097537579,474.08892931648
3.9140625,595.780641844913,474.088930379025
3.91796875,595.791263088436,474.088642729931
3.921875,595.78894266442,474.090367767913
3.92578125,595.784552584847,474.088215468125
3.9296875,595.776193441879,474.089528695167
3.93359375,595.771612175458,474.091450678084
3.9375,595.772323974598,474.090879351046
3.94140625,595.771535067797,474.090877663002
3.9453125,595.786202350422,474.088576548698
3.94921875,595.77665206194,474.092812448833
3.953125,595.763697781108,474.090944169429
3.95703125,595.769430162744,474.088718400438
3.9609375,595.770881769827,474.089073558972
3.96484375,595.767647748574,474.088139805715
3.96875,595.769939239982,474.091890484196
3.97265625,595.765343950193,474.093255725579
3.9765625,595.774107458116,474.092706582633
3.98046875,595.777441898927,474.091313656542
3.984375,595.774246083411,474.093652917927
3.98828125,595.77351635073,474.094338571682
3.9921875,595.770276120482,474.090096970255
3.99609375,595.766419835197,474.092037378171
4,595.783022505677,474.094119098139
4.00390625,595.781505082207,474.093332165126
4.0078125,595.770164278479,474.094839817269
4.01171875,595.759292699926,474.094053390603
4.015625,595.767613123466,474.094531969049
4.01953125,595.765481034047,474.095980287058
4.0234375,595.769860722578,474.096286394422
4.02734375,595.755421084938,474.09441726042
4.03125,595.770621146933,474.095669192549
4.03515625,595.759737885402,474.096861491209
4.0390625,595.76279666986,474.094903827951
4.04296875,595.748748140281,474.093260708484
4.046875,595.736401508206,474.093257676751
4.05078125,595.735617001775,474.093873728109
4.0546875,595.741695667676,474.096424412051
4.05859375,595.747361198768,474.093770643155
4.0625,595.746204833191,474.097569080623
4.06640625,595.742548984673,474.097657018708
4.0703125,595.743402669503,474.096578574189
4.07421875,595.728737418982,474.099810836204
4.078125,595.743935603247,474.096153771837
4.08203125,595.734118342007,474.100384678271
4.0859375,595.7313318553,474.098240700327
4.08984375,595.725676702817,474.099384478562
4.09375,595.730203740661,474.098453318187
4.09765625,595.742078036716,474.099672729648
4.1015625,595.730603163374,474.099398618896
4.10546875,595.735629156501,474.099034451702
4.109375,595.743167992551,474.09889021324
4.11328125,595.7447735066,474.098379643103
4.1171875,595.738808014209,474.100247683654
4.12109375,595.750104071158,474.098815513291
4.125,595.754577326302,474.099673818707
4.12890625,595.753013439972,474.097231968184
4.1328125,595.745481926109,474.099952177486
4.13671875,595.74045728785,474.100037029589
4.140625,595.746640601992,474.099318137919
4.14453125,595.750028289398,474.100390210497
4.1484375,595.759176860104,474.100465541169
4.15234375,595.75287307021,474.102051701195
4.15625,595.755729065466,474.101049978258
4.16015625,595.743901324632,474.101046812659
4.1640625,595.740093287126,474.102556617878
4.16796875,595.751936352476,474.102220426671
4.171875,595.792927407533,474.100396802756
4.17578125,595.845308342031,474.097807051917
4.1796875,595.894618473736,474.099946656363
4.18359375,595.914524769491,474.103490840046
4.1875,595.950192393959,474.101198347297
4.19140625,596.005576736745,474.102453267137
4.1953125,596.021555213779,474.103345442628
4.19921875,595.981860657599,474.103490333298
4.203125,595.890993356183,474.10615927193
4.20703125,595.771463916802,474.103723117524
4.2109375,595.741788276837,474.105081261937
4.21484375,595.755844953563,474.104079135124
4.21875,595.762527079875,474.105513745459
4.22265625,595.774854407049,474.103864856248
4.2265625,595.788596521311,474.106735203825
4.23046875,595.783983337021,474.104300149234
4.234375,595.777029769013,474.109252718534
4.23828125,595.781399300485,474.10560227165
4.2421875,595.76200324744,474.108322275912
4.24609375,595.766685274589,474.108195439613
4.25,595.765065185176,474.106748786434
4.25390625,595.756001888338,474.107648876021
4.2578125,595.755606496543,474.108689478511
4.26171875,595.755184936795,474.108044707956
4.265625,595.752838202177,474.10804261065
4.26953125,595.7427842862,474.107108069833
4.2734375,595.744526898547,474.108372113844
4.27734375,595.754476476068,474.109023311877
4.28125,595.763447078491,474.110455634224
4.28515625,595.768926318233,474.111430494271
4.2890625,595.760298866877,474.109818005803
4.29296875,595.757427063833,474.108765774077
4.296875,595.753799000075,474.111495494344
4.30078125,595.776794341052,474.110312427165
4.3046875,595.774886142035,474.109486603637
4.30859375,595.767905256886,474.110347664559
4.3125,595.758887517779,474.109851249541
4.31640625,595.756822879744,474.109777579644
4.3203125,595.759287054577,474.109287054784
4.32421875,595.766775745302,474.108693020355
4.328125,595.769508979026,474.109032319242
4.33203125,595.765407829429,474.11079242506
4.3359375,595.7608685707,474.112726322802
4.33984375,595.767637344781,474.112323762134
4.34375,595.77339626157,474.108199628112
4.34765625,595.771327695622,474.110415210839
4.3515625,595.771244347018,474.10869744484
4.35546875,595.778944178519,474.110560627733
4.359375,595.782057376038,474.10783536678
4.36328125,595.779762293272,474.113720537131
4.3671875,595.786553651386,474.112662008065
4.37109375,595.787110367215,474.114257204351
4.375,595.777373605961,474.11611611215
4.37890625,595.776654213366,474.11261160618
4.3828125,595.793329504812,474.110354769037
4.38671875,595.790920569963,474.110709901962
4.390625,595.783131582654,474.109992312534
4.39453125,595.782423969067,474.114518270601
4.3984375,595.784469840759,474.110580214785
4.40234375,595.793287959244,474.11099814138
4.40625,595.782884381387,474.109490157374
4.41015625,595.771054234234,474.113582093091
4.4140625,595.784900362421,474.111080243693
4.41796875,595.781137877532,474.114306193532
4.421875,595.792912780933,474.11264466971
4.42578125,595.766396325693,474.111003126426
4.4296875,595.755684001093,474.111215226395
4.43359375,595.768388091953,474.109275302453
4.4375,595.758382641113,474.115450039385
4.44140625,595.752619794542,474.112724550689
4.4453125,595.75181940061,474.111362639597
4.44921875,595.741960470234,474.114666474001
4.453125,595.735230961287,474.112906027376
4.45703125,595.732879448871,474.112370747645
4.4609375,595.735750534047,474.112859613557
4.46484375,595.735355612882,474.113234607229
4.46875,595.725749460722,474.110216674824
4.47265625,595.718106363115,474.112865583252
4.4765625,595.723314315208,474.109856067967
4.48046875,595.728536771755,474.113942398116
4.484375,595.719923529684,474.111901215943
4.48828125,595.725284114472,474.111289046914
4.4921875,595.723721601923,474.114594189188
4.49609375,595.730472058148,474.112737011491
4.5,595.729884795784,474.115821004877
4.50390625,595.725604769269,474.115256778921
4.5078125,595.731053459408,474.115888787146
4.51171875,595.713104782064,474.116191809284
4.515625,595.713379025372,474.114227225063
4.51953125,595.72375273037,474.113048061319
4.5234375,595.728899461774,474.112371218032
4.52734375,595.726034063185,474.113304218684
4.53125,595.727389512888,474.112660667173
4.53515625,595.72651398216,474.114670730307
4.5390625,595.718621062312,474.113024810693
4.54296875,595.723114339734,474.115103182286
4.546875,595.736227959648,474.114176243427
4.55078125,595.721232812433,474.116544600314
4.5546875,595.709604593382,474.116348119659
4.55859375,595.719713558877,474.11565598211
4.5625,595.718005944212,474.112236236478
4.56640625,595.716435262642,474.113326244902
4.5703125,595.717078620019,474.115609244052
4.57421875,595.712122134893,474.114824851189
4.578125,595.719787500422,474.116978009691
4.58203125,595.730541130373,474.116985692619
4.5859375,595.725839857387,474.116985692619
4.58984375,595.721003058356,474.118926061106
4.59375,595.707596596753,474.117998736513
4.59765625,595.706336414591,474.118426582961
4.6015625,595.711419800356,474.117039920464
4.60546875,595.716106481409,474.115402911069
4.609375,595.722186561461,474.116620699327
4.61328125,595.712715547039,474.11561899297
4.6171875,595.718646109905,474.118418030801
4.62109375,595.716871023688,474.118358613079
4.625,595.725605997681,474.118288532918
4.62890625,595.727535614389,474.116877874601
4.6328125,595.726776131125,474.116121690122
4.63671875,595.725859330728,474.118002018134
4.640625,595.721925342818,474.11972245178
4.64453125,595.728883576945,474.118255108549
4.6484375,595.716908087793,474.117276189396
4.65234375,595.720601274779,474.118719948221
4.65625,595.710051454064,474.121449862332
4.66015625,595.716983419209,474.119346531986
4.6640625,595.716793215325,474.118317746312
4.66796875,595.717942176611,474.117348547761
4.671875,595.715077194645,474.119214637357
4.67578125,595.713046379154,474.118790308512
4.6796875,595.729353919872,474.12068128353
4.68359375,595.714921141485,474.121887491366
4.6875,595.705299297471,474.119015636205
4.69140625,595.695395929649,474.119579956543
4.6953125,595.706886510612,474.119101227701
4.69921875,595.716130814699,474.118117488781
4.703125,595.729163611245,474.115622668065
4.70703125,595.724516914398,474.118119051928
4.7109375,595.716031156232,474.120657930816
4.71484375,595.706338976401,474.118005244366
4.71875,595.705448983028,474.118426527871
4.72265625,595.698856512171,474.117422149479
4.7265625,595.708606480447,474.120460656786
4.73046875,595.689457531106,474.121455517151
4.734375,595.700056303938,474.119474996162
4.73828125,595.700708505866,474.118861897434
4.7421875,595.695222828926,474.120441633861
4.74609375,595.689465919801,474.117501535127
4.75,595.682510767114,474.11820907955
4.75390625,595.674333247499,474.117924349683
4.7578125,595.686958852801,474.119935147238
4.76171875,595.686072113711,474.115200406278
4.765625,595.688727130456,474.118660315655
4.76953125,595.685881726852,474.119477323597
4.7734375,595.683261964505,474.12066073543
4.77734375,595.695692674879,474.120160940143
4.78125,595.705087965739,474.120230895043
4.78515625,595.699216964444,474.118434896953
4.7890625,595.707241937091,474.118699631018
4.79296875,595.686220377141,474.120082349757
4.796875,595.699969814401,474.119224724771
4.80078125,595.707513624401,474.122023606237
4.8046875,595.715186914123,474.120004095705
4.80859375,595.71137755263,474.118703518661
4.8125,595.707960043886,474.116271385029
4.81640625,595.697209053044,474.121868619042
4.8203125,595.714669812273,474.117291694595
4.82421875,595.721683615891,474.122447231512
4.828125,595.713649832299,474.120524071487
4.83203125,595.717139582335,474.118361391633
4.8359375,595.711477124824,474.119107079239
4.83984375,595.718424501995,474.121322915486
4.84375,595.712653832491,474.122680407359
4.84765625,595.693773003118,474.121677456321
4.8515625,595.709998766122,474.122607585582
4.85546875,595.740521983223,474.118875233066
4.859375,595.797047397793,474.119148235474
4.86328125,595.821875902946,474.116778452295
4.8671875,595.855552224543,474.118493588941
4.87109375,595.888889039033,474.117422584081
4.875,595.931949558568,474.117689148196
4.87890625,595.972221323548,474.119431775805
4.8828125,595.954933072776,474.117929120017
4.88671875,595.879936037211,474.120294100618
4.890625,595.749297220854,474.120015918245
4.89453125,595.681925732229,474.121020593086
4.8984375,595.677420088843,474.119568160693
4.90234375,595.723895391286,474.11792745689
4.90625,595.70697847581,474.120437720733
4.91015625,595.717616127183,474.117430194472
4.9140625,595.705588698556,474.120220198986
4.91796875,595.714593345646,474.120028615565
4.921875,595.713133914172,474.118402573041
4.92578125,595.707165968091,474.11742054758
4.9296875,595.690520506576,474.118567853413
4.93359375,595.692975021726,474.117997652941
4.9375,595.706489953114,474.117995395421
4.94140625,595.706754522276,474.117851718381
4.9453125,595.708132938241,474.11993446824
4.94921875,595.698080447088,474.117715686351
4.953125,595.698112644579,474.118856309953
4.95703125,595.698112928642,474.118454243239
4.9609375,595.694233702004,474.116343907034
4.96484375,595.707613105013,474.118635369445
4.96875,595.713031565539,474.118285307212
4.97265625,595.704565390099,474.120798162017
4.9765625,595.707653521206,474.118844856174
4.98046875,595.711014065695,474.117740622624
4.984375,595.70912703849,474.116915522301
4.98828125,595.698510991844,474.119643289256
4.9921875,595.708674057909,474.117656191876
4.99609375,595.708169734398,474.117422471887
5,595.706412669876,474.117350146427
5.00390625,595.710860607212,474.117142865728
5.0078125,595.69988790168,474.116150867563
5.01171875,595.702860862901,474.115472691511
5.015625,595.695617846649,474.117769786966
5.01953125,595.704387547141,474.1154262076
5.0234375,595.714120238142,474.115111007441
5.02734375,595.72441034606,474.115397857482
5.03125,595.71926543591,474.113746886141
5.03515625,595.729301013275,474.116397994708
5.0390625,595.728623285532,474.1127453469
5.04296875,595.736449934939,474.112730516521
5.046875,595.731956294679,474.112443193316
5.05078125,595.734595677713,474.112657519614
5.0546875,595.726848850777,474.108784465983
5.05859375,595.74240441078,474.108691808539
5.0625,595.738876285312,474.110487427823
5.06640625,595.744248813733,474.110063772842
5.0703125,595.739742127146,474.110333604692
5.07421875,595.730883074918,474.111391193725
5.078125,595.74181855116,474.112511195963
5.08203125,595.753184181965,474.109717773303
5.0859375,595.747645442475,474.107830614899
5.08984375,595.737952962332,474.108400861427
5.09375,595.740311348909,474.107828603423
5.09765625,595.747061319267,474.108670537859
5.1015625,595.74392317128,474.109032760133
5.10546875,595.747932415982,474.110130432379
5.109375,595.721229721609,474.107907533508
5.11328125,595.722335690756,474.108113842419
5.1171875,595.729890710259,474.107023966599
5.12109375,595.719925242171,474.103870035768
5.125,595.717519356998,474.106660693429
5.12890625,595.700752162167,474.105563265735
5.1328125,595.691608284162,474.104367602726
5.13671875,595.681552421564,474.105054281528
5.140625,595.693519403974,474.106020434199
5.14453125,595.688182539773,474.103940337559
5.1484375,595.688303789905,474.103999312198
5.15234375,595.68693976773,474.10436307409
5.15625,595.689304203392,474.103215254996
5.16015625,595.687949471235,474.103210461522
5.1640625,595.695413172563,474.102941697357
5.16796875,595.68606015252,474.09968930097
5.171875,595.685636437113,474.10205908134
5.17578125,595.695414082128,474.103423734294
5.1796875,595.70216214634,474.10219465939
5.18359375,595.702943848148,474.099540733243
5.1875,595.692868164723,474.100681364445
5.19140625,595.679399977239,474.100614385428
5.1953125,595.682997659301,474.102265921888
5.19921875,595.689797735948,474.098322882751
5.203125,595.689388032729,474.100460733787
5.20703125,595.705186193713,474.098616191843
5.2109375,595.690171168745,474.098378685783
5.21484375,595.702588946629,474.099200118564
5.21875,595.707109454641,474.100897145553
5.22265625,595.711587463114,474.097096262423
5.2265625,595.704920770248,474.100096401839
5.23046875,595.712792135314,474.097092954305
5.234375,595.70417245802,474.09822918105
5.23828125,595.694461715068,474.095766004218
5.2421875,595.697534892809,474.09487675614
5.24609375,595.698759485579,474.093981360997
5.25,595.698695261331,474.096779136589
5.25390625,595.690297466705,474.098446540762
5.2578125,595.690107644997,474.098316683304
5.26171875,595.700520339476,474.093781566785
5.265625,595.694245507209,474.093906154444
5.26953125,595.695726436746,474.09390677141
5.2734375,595.682591109251,474.094177161202
5.27734375,595.68989212624,474.095522772659
5.28125,595.696940035377,474.096428812189
5.28515625,595.695045289896,474.096143779818
5.2890625,595.69077240135,474.097291520957
5.29296875,595.689317053357,474.09368714519
5.296875,595.691190942554,474.092682623834
5.30078125,595.692843682032,474.093255185259
5.3046875,595.683995385488,474.092826815829
5.30859375,595.683112985636,474.095553732823
5.3125,595.685634398271,474.092405964427
5.31640625,595.692047546456,474.095695438262
5.3203125,595.694717439647,474.091401262926
5.32421875,595.678063711983,474.09280932983
5.328125,595.680647895818,474.092959589775
5.33203125,595.678648866238,474.094405728225
5.3359375,595.686036229106,474.090174998795
5.33984375,595.68527873801,474.091018132489
5.34375,595.696046350912,474.088580463229
5.34765625,595.69142605842,474.088905687576
5.3515625,595.6967910808,474.092090782765
5.35546875,595.692657113216,474.090021352548
5.359375,595.688388424905,474.090586652599
5.36328125,595.695126195234,474.087214333248
5.3671875,595.688679480446,474.089497224294
5.37109375,595.679965916161,474.087137782559
5.375,595.672170478287,474.092512650847
5.37890625,595.687371617432,474.089305274701
5.3828125,595.683360064655,474.090009028449
5.38671875,595.678883576544,474.086422045577
5.390625,595.667860326088,474.089206443632
5.39453125,595.672958000969,474.088120550408
5.3984375,595.682862560025,474.086267815498
5.40234375,595.679376961727,474.086733957383
5.40625,595.683597629474,474.089424645294
5.41015625,595.673574414829,474.087654072458
5.4140625,595.673375435273,474.087431064542
5.41796875,595.679334700787,474.083107156809
5.421875,595.678492482164,474.087324791649
5.42578125,595.657958060595,474.08633850152
5.4296875,595.66543620238,474.086621200708
5.43359375,595.667601170034,474.085976286186
5.4375,595.662976641815,474.086906780591
5.44140625,595.660751944452,474.086049384654
5.4453125,595.648326474056,474.087912289531
5.44921875,595.655672086028,474.087489887705
5.453125,595.639335456386,474.089713685882
5.45703125,595.656941604383,474.084841449799
5.4609375,595.67081401194,474.085359980519
5.46484375,595.669696007875,474.087838900702
5.46875,595.666355958574,474.086556208105
5.47265625,595.657396552821,474.088417062487
5.4765625,595.668980759667,474.083859292579
5.48046875,595.671762344642,474.083377792521
5.484375,595.674305514547,474.086320649874
5.48828125,595.668138419037,474.084682714825
5.4921875,595.679711622535,474.085464947754
5.49609375,595.686916025162,474.083978455528
5.5,595.683272582137,474.083680082857
5.50390625,595.696753137685,474.083090573805
5.5078125,595.684825147924,474.083829864897
5.51171875,595.693744549279,474.087976057647
5.515625,595.691404501542,474.083326257066
5.51953125,595.684938182682,474.084122739769
5.5234375,595.693170744703,474.086110535406
5.52734375,595.684091085535,474.084953589616
5.53125,595.684192794848,474.082833447073
5.53515625,595.683589008782,474.082368213844
5.5390625,595.679125307376,474.082637054964
5.54296875,595.666426354759,474.083999675816
5.546875,595.689831644443,474.084385923636
5.55078125,595.734753168679,474.083761394059
5.5546875,595.7875384089,474.083255020896
5.55859375,595.816595900268,474.082617477509
5.5625,595.840160674906,474.081290163213
5.56640625,595.87562972706,474.081357275193
5.5703125,595.91184608883,474.079660052385
5.57421875,595.895756539052,474.079194908328
5.578125,595.876038274386,474.080363578344
5.58203125,595.840568522044,474.081958201068
5.5859375,595.76970679293,474.082907267103
5.58984375,595.743295975199,474.083878942873
5.59375,595.724919920061,474.083069642959
5.59765625,595.735135415985,474.08007113921
5.6015625,595.734650360712,474.0816387044
5.60546875,595.716379668047,474.081171126056
5.609375,595.711144610374,474.079704400032
5.61328125,595.700315502569,474.080273087954
5.6171875,595.709655816331,474.079773290836
5.62109375,595.711308124814,474.0799862862
5.625,595.700998346514,474.078049137727
5.62890625,595.690571157232,474.081270276754
5.6328125,595.700374515917,474.080280515454
5.63671875,595.696734358928,474.080410207603
5.640625,595.693865702379,474.081281800108
5.64453125,595.703117707469,474.081151331528
5.6484375,595.695480811907,474.080064124629
5.65234375,595.696045173172,474.08328958861
5.65625,595.706592657631,474.07756236767
5.66015625,595.707487283582,474.080119261548
5.6640625,595.698300835118,474.078911271646
5.66796875,595.700984831275,474.080484643842
5.671875,595.696260346364,474.079917912406
5.67578125,595.696571103575,474.080991867393
5.6796875,595.703792651312,474.080325108963
5.68359375,595.716029191992,474.075967087485
5.6875,595.70480199606,474.077032587042
5.69140625,595.706901471007,474.080550503538
5.6953125,595.702030834981,474.080159119778
5.69921875,595.710986934551,474.078479582939
5.703125,595.725685191726,474.079334071275
5.70703125,595.712887363488,474.075892888706
5.7109375,595.714333830172,474.078532089571
5.71484375,595.716784031716,474.078544864481
5.71875,595.71614644363,474.074668943289
5.72265625,595.71681099903,474.076229058399
5.7265625,595.726284550656,474.078608949445
5.73046875,595.728543632693,474.07746056963
5.734375,595.728332933218,474.074589018722
5.73828125,595.73274041629,474.07787978871
5.7421875,595.745795814675,474.077829143827
5.74609375,595.746001446304,474.076316192318
5.75,595.739829198525,474.076380867148
5.75390625,595.741306466402,474.076045604268
5.7578125,595.733921148962,474.073794653268
5.76171875,595.749435086656,474.074461051931
5.765625,595.75543560656,474.076876295868
5.76953125,595.752921579347,474.075737713387
5.7734375,595.74836224813,474.075947434221
5.77734375,595.736383828573,474.074154209745
5.78125,595.749973890259,474.076800973755
5.78515625,595.74673908008,474.075880935029
5.7890625,595.753828134903,474.078388313674
5.79296875,595.741733820306,474.073832494839
5.796875,595.742033237257,474.073424917073
5.80078125,595.729982167041,474.077227981779
5.8046875,595.721719643392,474.075219071006
5.80859375,595.72428034581,474.074076330696
5.8125,595.723288329837,474.075939287878
5.81640625,595.727948288037,474.075268715204
5.8203125,595.724496724861,474.073629906552
5.82421875,595.721947114925,474.072274314178
5.828125,595.704830735963,474.073418551523
5.83203125,595.701030406872,474.071630058923
5.8359375,595.700637903726,474.074563584883
5.83984375,595.71133027955,474.072353437241
5.84375,595.705284163125,474.0734906561
5.84765625,595.687421681665,474.073209291637
5.8515625,595.682617282911,474.073813438533
5.85546875,595.690415037777,474.076801041294
5.859375,595.693417851658,474.075655326865
5.86328125,595.687467694049,474.073217038945
5.8671875,595.682121576584,474.073423154736
5.87109375,595.680892404983,474.073352466269
5.875,595.666913382461,474.073639157307
5.87890625,595.655738483724,474.073439389258
5.8828125,595.665249689998,474.072203292634
5.88671875,595.662140083642,474.068750170483
5.890625,595.667451823275,474.072186483544
5.89453125,595.672565927816,474.073421321127
5.8984375,595.671972744817,474.071271416134
5.90234375,595.670138163335,474.071260579975
5.90625,595.668224780639,474.072618810043
5.91015625,595.6630891744,474.072702876453
5.9140625,595.65975366164,474.07270301255
5.91796875,595.662505535726,474.07141134508
5.921875,595.674620933536,474.072587934929
5.92578125,595.673522645001,474.073421826326
5.9296875,595.669999938636,474.071558514928
5.93359375,595.673573353124,474.071692580878
5.9375,595.669749981204,474.071069209478
5.94140625,595.664163298232,474.07055255232
5.9453125,595.673471936377,474.070323590926
5.94921875,595.669248401776,474.07164789248
5.953125,595.664232520041,474.072484300065
5.95703125,595.674907417471,474.072009480765
5.9609375,595.668073402597,474.071047884698
5.96484375,595.669061211167,474.072838089795
5.96875,595.67097876537,474.07237077601
5.97265625,595.673197758403,474.07137404653
5.9765625,595.721879324036,474.070398272089
5.98046875,595.726418070341,474.074628600852
5.984375,595.731559555732,474.070729302834
5.98828125,595.721569690998,474.070323732124
5.9921875,595.716445475933,474.070524117973
5.99609375,595.724539773583,474.071712568963
6,595.717908655025,474.07298727673
6.00390625,595.71873527575,474.069403912303
6.0078125,595.705976023636,474.071173838833
6.01171875,595.695548523831,474.071255062716
6.015625,595.706721243625,474.073413335304
6.01953125,595.714339542003,474.07098474228
6.0234375,595.716498896702,474.071038971403
6.02734375,595.716145196186,474.07154667591
6.03125,595.722385547454,474.069611828401
6.03515625,595.711296897829,474.072543471598
6.0390625,595.718251798904,474.072492317175
6.04296875,595.721400044491,474.071123193846
6.046875,595.720188508557,474.072623032586
6.05078125,595.725993684522,474.07076545914
6.0546875,595.715405387298,474.071114465454
6.05859375,595.717143656141,474.069753156469
6.0625,595.715587311037,474.070965712575
6.06640625,595.71233367991,474.0704959564
6.0703125,595.715262444097,474.069461654729
6.07421875,595.712192833232,474.071394659316
6.078125,595.725186267118,474.070472135796
6.08203125,595.725919900629,474.07068247447
6.0859375,595.726957653364,474.070396630582
6.08984375,595.713877824125,474.071385689396
6.09375,595.709087290017,474.071612260658
6.09765625,595.711299450428,474.071836790326
6.1015625,595.70394406569,474.070187464179
6.10546875,595.702461081229,474.070311847594
6.109375,595.69693047156,474.072117009227
6.11328125,595.690346824877,474.071090610091
6.1171875,595.695345725218,474.070047857231
6.12109375,595.69477136789,474.069890592833
6.125,595.689842849899,474.072688159887
6.12890625,595.690721642669,474.071516535661
6.1328125,595.691403514349,474.070829810917
6.13671875,595.680931622666,474.074542329978
6.140625,595.698380343324,474.074794105617
6.14453125,595.692375753145,474.070848915075
6.1484375,595.704251803268,474.07205342132
6.15234375,595.692478522373,474.074496343459
6.15625,595.697723896835,474.07337977804
6.16015625,595.695241508772,474.073013647684
6.1640625,595.70345291486,474.071914490607
6.16796875,595.706543315278,474.07341616167
6.171875,595.692562557737,474.073018901276
6.17578125,595.713864879965,474.071844333467
6.1796875,595.70946029564,474.067816644664
6.18359375,595.713596672273,474.071561333814
6.1875,595.699415497098,474.072158910168
6.19140625,595.707143660058,474.075141005692
6.1953125,595.718768159382,474.073795460534
6.19921875,595.71759235554,474.070911718863
6.203125,595.717851068719,474.072262920693
6.20703125,595.723757341397,474.070979087224
6.2109375,595.719771178333,474.071038329224
6.21484375,595.723131830413,474.073196453246
6.21875,595.732338958759,474.072868163572
6.22265625,595.736254729943,474.072169234185
6.2265625,595.72431138463,474.070402666527
6.23046875,595.721593245913,474.070461260793
6.234375,595.718678028116,474.074627884119
6.23828125,595.743136649773,474.071700553256
6.2421875,595.793123328814,474.070556627089
6.24609375,595.834317216247,474.070323530987
6.25,595.866503632922,474.07247488958
6.25390625,595.882570136839,474.069991866084
6.2578125,595.923859975538,474.069746491567
6.26171875,595.950601027573,474.071610968702
6.265625,595.93068872019,474.070114888059
6.26953125,595.873820822026,474.074285542568
6.2734375,595.800348859519,474.075153212122
6.27734375,595.760489813133,474.074598921701
6.28125,595.74898735377,474.074242753764
6.28515625,595.765458442533,474.072351593474
6.2890625,595.770366782979,474.0734182994
6.29296875,595.754627271923,474.071559372111
6.296875,595.754179161447,474.074991876567
6.30078125,595.748268740104,474.07199357404
6.3046875,595.749313338791,474.070759035462
6.30859375,595.733470660955,474.073481245678
6.3125,595.722596066803,474.072315379796
6.31640625,595.732603532753,474.071479574255
6.3203125,595.73201368175,474.072969309161
6.32421875,595.732010094167,474.076366772945
6.328125,595.729284621713,474.071647500303
6.33203125,595.732640400677,474.074776950879
6.3359375,595.730979547025,474.07432677539
6.33984375,595.724180844841,474.07141925105
6.34375,595.734566149472,474.071603875845
6.34765625,595.739784259442,474.07456247286
6.3515625,595.735384072265,474.069772887829
6.35546875,595.73489592722,474.071474900678
6.359375,595.743468745603,474.072986391304
6.36328125,595.751024613399,474.069118642187
6.3671875,595.749406183834,474.072324311844
6.37109375,595.749325170719,474.071266627068
6.375,595.739421877581,474.074201035997
6.37890625,595.757152673317,474.072989940246
6.3828125,595.748574864216,474.07091396889
6.38671875,595.749458272132,474.070827998195
6.390625,595.745839126356,474.074126846268
6.39453125,595.740469387467,474.070344485447
6.3984375,595.750510481321,474.07065714044
6.40234375,595.757877902523,474.072621066693
6.40625,595.756324027058,474.069762287577
6.41015625,595.757821098769,474.07354692255
6.4140625,595.744705786125,474.073303782415
6.41796875,595.76377900261,474.06711156311
6.421875,595.76283986547,474.069260145731
6.42578125,595.762302754685,474.069930719659
6.4296875,595.765287944481,474.07082432481
6.43359375,595.771390274665,474.069457036242
6.4375,595.77512953612,474.067661382938
6.44140625,595.784257409798,474.070809859765
6.4453125,595.76486441404,474.06901115527
6.44921875,595.776543260766,474.068089938309
6.453125,595.78299135265,474.07160109738
6.45703125,595.783935571832,474.070400997121
6.4609375,595.779292085297,474.067666442791
6.46484375,595.775799473688,474.071741995363
6.46875,595.779158263545,474.069900987579
6.47265625,595.774766178469,474.071252746223
6.4765625,595.765644110136,474.068384607181
6.48046875,595.763632617834,474.067224989136
6.484375,595.760152306978,474.071287610217
6.48828125,595.760639486649,474.072986732519
6.4921875,595.74787851996,474.06876078115
6.49609375,595.754330070807,474.069525100323
6.5,595.748952977926,474.067880399141
6.50390625,595.745219607484,474.070667437682
6.5078125,595.744047470255,474.068030487377
6.51171875,595.74191359748,474.068749685218
6.515625,595.727541433808,474.0729699094
6.51953125,595.733857733836,474.066394658969
6.5234375,595.734757134084,474.071662459412
6.52734375,595.742651119729,474.069757281974
6.53125,595.746566961079,474.071251802032
6.53515625,595.742133041216,474.069683101213
6.5390625,595.751787105504,474.069889014882
6.54296875,595.737837065738,474.06917324425
6.546875,595.730164680253,474.071391827954
6.55078125,595.718858466035,474.071338709247
6.5546875,595.721362047355,474.070013434197
6.55859375,595.723685681632,474.069132073858
6.5625,595.737491349789,474.068378413331
6.56640625,595.729963242002,474.070885220629
6.5703125,595.736443277305,474.070899971831
6.57421875,595.724306277072,474.067713525562
6.578125,595.720408855351,474.067079018268
6.58203125,595.725733967714,474.0698737868
6.5859375,595.729645132025,474.069279727123
6.58984375,595.732002417836,474.068052781507
6.59375,595.724857530045,474.067440010681
6.59765625,595.724598582524,474.069589067517
6.6015625,595.721569480051,474.068167826602
6.60546875,595.729582486865,474.071600790882
6.609375,595.728698024175,474.068753322757
6.61328125,595.734213140065,474.069069691807
6.6171875,595.722631189863,474.071105592307
6.62109375,595.730588070815,474.069825818239
6.625,595.737036105647,474.069818147399
6.62890625,595.731402691311,474.071252034579
6.6328125,595.71427830249,474.068536196331
6.63671875,595.726514001978,474.071387730337
6.640625,595.731993943238,474.069827548492
6.64453125,595.724769081674,474.071252011259
6.6484375,595.728668932376,474.070687034853
6.65234375,595.723197664515,474.070683606945
6.65625,595.717032605331,474.071185451123
6.66015625,595.725253372231,474.071188458346
6.6640625,595.724834706706,474.070024365909
6.66796875,595.722759715649,474.068525975575
6.671875,595.718829253633,474.070240537363
6.67578125,595.724009939221,474.067526626643
6.6796875,595.727813946909,474.071811636427
6.68359375,595.724242558065,474.070117001821
6.6875,595.7269451643,474.071540426567
6.69140625,595.722875334873,474.070258673244
6.6953125,595.730682728666,474.071397892538
6.69921875,595.739261200781,474.066960138689
6.703125,595.736389392908,474.071879708708
6.70703125,595.729511786184,474.069328932317
6.7109375,595.725497312593,474.073399471332
6.71484375,595.720491125111,474.073025401145
6.71875,595.731672903926,474.070050870546
6.72265625,595.736467403542,474.073905562291
6.7265625,595.727432994801,474.071991713232
6.73046875,595.726651313163,474.070517588096
6.734375,595.72351619499,474.069604873679
6.73828125,595.732818783433,474.073364021195
6.7421875,595.720252235063,474.073927791974
6.74609375,595.716873418776,474.072136986342
6.75,595.723674508934,474.073201295859
6.75390625,595.723572741598,474.070985702423
6.7578125,595.732460503016,474.074505318762
6.76171875,595.724773227367,474.077093381303
6.765625,595.728524926436,474.073421155791
6.76953125,595.72102170957,474.072721419668
6.7734375,595.724574929216,474.072415487034
6.77734375,595.727312484839,474.074278242291
6.78125,595.724526657934,474.074146327852
6.78515625,595.728093455345,474.075722409777
6.7890625,595.719323526975,474.073294993771
6.79296875,595.706049236608,474.074757100242
6.796875,595.700653486421,474.075195076729
6.80078125,595.712984653613,474.077737522947
6.8046875,595.71613506575,474.073841910921
6.80859375,595.710746120102,474.073353194731
6.8125,595.703602151834,474.076466770307
6.81640625,595.69784780749,474.078824916784
6.8203125,595.692866920278,474.075607901607
6.82421875,595.694138229498,474.075925477624
6.828125,595.678664326997,474.076695750487
6.83203125,595.695631138729,474.078031911241
6.8359375,595.701629649936,474.080552668413
6.83984375,595.695769593536,474.074113580544
6.84375,595.703975456314,474.07651537064
6.84765625,595.691627252934,474.077747591616
6.8515625,595.695024777781,474.077608178018
6.85546875,595.695545798283,474.079542457983
6.859375,595.717737667851,474.077619394097
6.86328125,595.705904850403,474.078283558899
6.8671875,595.709722248115,474.079732401442
6.87109375,595.722568430225,474.080249147104
6.875,595.694610574527,474.08095827598
6.87890625,595.69889939991,474.082002115842
6.8828125,595.708453188195,474.079784911213
6.88671875,595.699682948082,474.0826426263
6.890625,595.708156159376,474.083806219271
6.89453125,595.706346549799,474.08180299752
6.8984375,595.708484879175,474.081790337776
6.90234375,595.701403276295,474.084112272163
6.90625,595.702648431278,474.084817469107
6.91015625,595.695793816969,474.084550660565
6.9140625,595.684030392694,474.08374173607
6.91796875,595.685228906382,474.086675975013
6.921875,595.70872955935,474.083926649915
6.92578125,595.730891729269,474.083522208102
6.9296875,595.77299231258,474.084094584478
6.93359375,595.811633657516,474.08266491199
6.9375,595.862223151997,474.084309095668
6.94140625,595.895134649855,474.085768880201
6.9453125,595.946712526339,474.086978448266
6.94921875,595.960165777439,474.085908124662
6.953125,595.922097024859,474.086372033355
6.95703125,595.8650599159,474.087697579331
6.9609375,595.760051860858,474.086056051115
6.96484375,595.716065499839,474.090058604819
6.96875,595.717861852559,474.089582689112
6.97265625,595.710923013591,474.089579473684
6.9765625,595.723275832578,474.088002928804
6.98046875,595.716215957073,474.089139375039
6.984375,595.714791962834,474.087211894906
6.98828125,595.710911525977,474.090280886127
6.9921875,595.702768262535,474.088150892314
6.99609375,595.709034781017,474.092149993556
7,595.701694450107,474.090169376096
7.00390625,595.703051621833,474.091185149978
7.0078125,595.708325802455,474.092315428324
7.01171875,595.707892298911,474.088737162852
7.015625,595.701971470214,474.092044359057
7.01953125,595.715916027349,474.092591496113
7.0234375,595.716827239098,474.092876025874
7.02734375,595.71772617918,474.09411621377
7.03125,595.711389355097,474.091973449437
7.03515625,595.702407960167,474.092292420162
7.0390625,595.711181678448,474.093886731443
7.04296875,595.71123906508,474.096275948498
7.046875,595.712503569446,474.094352099798
7.05078125,595.719063128177,474.098065561881
7.0546875,595.709683644609,474.091712632857
7.05859375,595.703059563362,474.096901728074
7.0625,595.702819101009,474.096505957039
7.06640625,595.698275275319,474.097864550131
7.0703125,595.693420271438,474.097607956217
7.07421875,595.69134026573,474.095935917029
7.078125,595.710751029374,474.099508747835
7.08203125,595.707797448518,474.097740974491
7.0859375,595.727696304576,474.098230777245
7.08984375,595.710199143644,474.095818932631
7.09375,595.701100671396,474.09384229611
7.09765625,595.72263660672,474.096704122801
7.1015625,595.720844003428,474.097869775161
7.10546875,595.721834326507,474.097228620764
7.109375,595.704286960501,474.098872291363
7.11328125,595.706354709439,474.09830998181
7.1171875,595.723599545718,474.098705525285
7.12109375,595.729511149337,474.100648678544
7.125,595.735375041341,474.101028781469
7.12890625,595.727631669252,474.101477541489
7.1328125,595.722652353085,474.097538986913
7.13671875,595.732515106512,474.099375660912
7.140625,595.734678627664,474.098828463236
7.14453125,595.741492750054,474.098595424915
7.1484375,595.734938787407,474.102248584342
7.15234375,595.73561139998,474.101699727819
7.15625,595.73522229587,474.102540646082
7.16015625,595.724793260333,474.102777050517
7.1640625,595.740129019367,474.100628446674
7.16796875,595.734465170298,474.102333509534
7.171875,595.728872173892,474.101949031544
7.17578125,595.723665653022,474.097898636605
7.1796875,595.724708940241,474.10088240588
7.18359375,595.729745286325,474.098681681509
7.1875,595.72331056783,474.102320517701
7.19140625,595.717608669935,474.100840554196
7.1953125,595.703247714178,474.102621455556
7.19921875,595.694969388882,474.102137490213
7.203125,595.695818770348,474.102056721148
7.20703125,595.697527484554,474.1023323147
7.2109375,595.683072854619,474.102543048813
7.21484375,595.674990547363,474.105212849261
7.21875,595.690578934835,474.102169942603
7.22265625,595.685269396135,474.100475830901
7.2265625,595.684872804216,474.104673695992
7.23046875,595.680178562375,474.106234639173
7.234375,595.671023882758,474.106239569931
7.23828125,595.667760102508,474.105451580295
7.2421875,595.675557977356,474.106162585632
7.24609375,595.673891731783,474.105153637276
7.25,595.676615876948,474.103148419358
7.25390625,595.687162560775,474.105684745988
7.2578125,595.684802031198,474.106166166933
7.26171875,595.67867252703,474.105203403948
7.265625,595.690172991862,474.104367809629
7.26953125,595.67788913394,474.105245906744
7.2734375,595.658538370838,474.106667043217
7.27734375,595.667855365217,474.108538782477
7.28125,595.676943039477,474.106828302848
7.28515625,595.676189034692,474.109108755232
7.2890625,595.669343211404,474.108909543738
7.29296875,595.668832677433,474.109250406308
7.296875,595.682195406773,474.109627635353
7.30078125,595.69115515228,474.107981814864
7.3046875,595.676003874528,474.111296681955
7.30859375,595.678283024145,474.113443652309
7.3125,595.68143053957,474.111589406052
7.31640625,595.685104898374,474.112006337809
7.3203125,595.693309557147,474.110505114512
7.32421875,595.683631959815,474.113073350122
7.328125,595.678226592829,474.11029768329
7.33203125,595.669595523803,474.11232399353
7.3359375,595.681780892896,474.112801281273
7.33984375,595.685271074784,474.110868750995
7.34375,595.693381147352,474.112825273477
7.34765625,595.682336196994,474.113377959055
7.3515625,595.675339607142,474.112806617605
7.35546875,595.674459302947,474.113203749625
7.359375,595.677043801421,474.114526069777
7.36328125,595.680642490369,474.113602458993
7.3671875,595.673602246482,474.114377988327
7.37109375,595.666195507503,474.114455321343
7.375,595.666234668781,474.115336202984
7.37890625,595.66451624974,474.117407331692
7.3828125,595.675247493279,474.116690166067
7.38671875,595.670022582285,474.112181548806
7.390625,595.670185620089,474.116972980728
7.39453125,595.670883993305,474.117671052634
7.3984375,595.671784311025,474.118576337352
7.40234375,595.663537185352,474.121655764524
7.40625,595.648497585237,474.117591309404
7.41015625,595.67198381254,474.119903292532
7.4140625,595.661979399404,474.120214970367
7.41796875,595.665775234665,474.120661665384
7.421875,595.663318612727,474.118372124624
7.42578125,595.661410761084,474.118421303877
7.4296875,595.67508178697,474.12344161233
7.43359375,595.6615710999,474.121015341772
7.4375,595.671068774489,474.118224437472
7.44140625,595.676241117809,474.121042907866
7.4453125,595.64990563773,474.121528048597
7.44921875,595.661177574251,474.121099670537
7.453125,595.644071403529,474.121311467619
7.45703125,595.65445054765,474.121098148185
7.4609375,595.655846097652,474.122385678419
7.46484375,595.655784406166,474.121320622046
7.46875,595.648615923786,474.122888471642
7.47265625,595.655661304005,474.121467410454
7.4765625,595.657790287987,474.123462357848
7.48046875,595.655720204148,474.123046970103
7.484375,595.658068591001,474.125120643444
7.48828125,595.650889275501,474.123058737676
7.4921875,595.650397195247,474.123794642789
7.49609375,595.649371571419,474.124652102528
7.5,595.644683099232,474.12593022819
7.50390625,595.642514902915,474.127579619346
7.5078125,595.645099606909,474.125797347659
7.51171875,595.648059416831,474.126048958332
7.515625,595.65716680327,474.127721142437
7.51953125,595.651204918129,474.125010722617
7.5234375,595.652450665145,474.124991193413
7.52734375,595.649452467669,474.127071922649
7.53125,595.653191373768,474.128304067812
7.53515625,595.661845842167,474.127472328864
7.5390625,595.678479299591,474.127084108412
7.54296875,595.670046954242,474.129302480337
7.546875,595.674997854009,474.126812310844
7.55078125,595.670722091164,474.130302827048
7.5546875,595.666183687009,474.12948005576
7.55859375,595.666234650968,474.129329744627
7.5625,595.666037736273,474.128601897803
7.56640625,595.664227828098,474.128727945588
7.5703125,595.673667305542,474.132823523078
7.57421875,595.669364343174,474.132318186077
7.578125,595.664678460001,474.130626624321
7.58203125,595.653890719232,474.131690700156
7.5859375,595.659297147914,474.13073992876
7.58984375,595.70213822993,474.129755698145
7.59375,595.750993783735,474.131970821869
7.59765625,595.781783818,474.130483390756
7.6015625,595.827943580178,474.133007390676
7.60546875,595.855187704029,474.133643848098
7.609375,595.909499350098,474.129851055277
7.61328125,595.910581393576,474.132916945252
7.6171875,595.854276204031,474.135581487722
7.62109375,595.721119412422,474.134504110126
7.625,595.653776193636,474.133115647927
7.62890625,595.63564204645,474.132422347946
7.6328125,595.662253105489,474.135355164335
7.63671875,595.675990982176,474.130651441202
7.640625,595.700824187545,474.134912373625
7.64453125,595.706677395268,474.133512080461
7.6484375,595.703923963232,474.133787920252
7.65234375,595.685886988945,474.13328887695
7.65625,595.680604426952,474.133753384702
7.66015625,595.682735143939,474.135031036518
7.6640625,595.681891914058,474.136021538801
7.66796875,595.685465177399,474.135453064178
7.671875,595.67625623631,474.135806791108
7.67578125,595.678478867951,474.134162842964
7.6796875,595.66160036688,474.136155188592
7.68359375,595.669803136833,474.135746116074
7.6875,595.683186072962,474.135665427688
7.69140625,595.660275573944,474.137437366279
7.6953125,595.670256268102,474.137667948233
7.69921875,595.673621460986,474.138616101704
7.703125,595.688425608937,474.13482799494
7.70703125,595.666113576251,474.135531524722
7.7109375,595.669408902743,474.138244767342
7.71484375,595.681260990463,474.137795745914
7.71875,595.686737536441,474.136108338882
7.72265625,595.68995003969,474.138675016287
7.7265625,595.68305141481,474.137292963336
7.73046875,595.678574344493,474.136820735522
7.734375,595.676269129965,474.137892927896
7.73828125,595.686637445444,474.13496599679
7.7421875,595.688730924365,474.137163098417
7.74609375,595.683296693105,474.134960628443
7.75,595.691344784615,474.139789059975
7.75390625,595.680668133942,474.141213902893
7.7578125,595.686563360171,474.13799731492
7.76171875,595.691552756007,474.138651583671
7.765625,595.695355506491,474.13962073402
7.76953125,595.687355131952,474.139703794221
7.7734375,595.689929965708,474.138753933943
7.77734375,595.708086920906,474.137436379347
7.78125,595.705919377066,474.136893263369
7.78515625,595.710841041255,474.139110222709
7.7890625,595.704078422871,474.137337550004
7.79296875,595.709263969983,474.137753467769
7.796875,595.711225746364,474.13546603411
7.80078125,595.721412286583,474.134227623543
7.8046875,595.711745728676,474.137944817777
7.80859375,595.718758016626,474.133821562725
7.8125,595.715873521599,474.138604536992
7.81640625,595.707395808071,474.139341329628
7.8203125,595.713405483728,474.133903569253
7.82421875,595.720794399834,474.134830408618
7.828125,595.712743224137,474.135410869157
7.83203125,595.712681497655,474.136595943576
7.8359375,595.707858203309,474.134383977579
7.83984375,595.696182268335,474.138804597118
7.84375,595.694036250245,474.135045120748
7.84765625,595.677976035622,474.137521148409
7.8515625,595.659045221317,474.137197280084
7.85546875,595.669573715801,474.136892658906
7.859375,595.672284679005,474.137964834682
7.86328125,595.662774384839,474.136183800746
7.8671875,595.66320220895,474.137172045947
7.87109375,595.65977063149,474.136787002852
7.875,595.67065806002,474.131949827878
7.87890625,595.686385164578,474.136280646883
7.8828125,595.687753855757,474.136182061001
7.88671875,595.68851750349,474.135572539904
7.890625,595.677069744387,474.133203828943
7.89453125,595.680309784005,474.132494258354
7.8984375,595.682166555986,474.132688570966
7.90234375,595.674015356269,474.134569938042
7.90625,595.68067952587,474.134386403235
7.91015625,595.677728044727,474.132791586038
7.9140625,595.669172676462,474.131272993696
7.91796875,595.678932588985,474.133627458246
7.921875,595.683526675963,474.131641971654
7.92578125,595.683150998822,474.132308543845
7.9296875,595.679388297388,474.133017795049
7.93359375,595.67985182068,474.134788921029
7.9375,595.679999124395,474.132609827289
7.94140625,595.680583492584,474.130506074044
7.9453125,595.677009197493,474.130184904125
7.94921875,595.677553789406,474.133404251907
7.953125,595.676127020827,474.130566936751
7.95703125,595.677374324615,474.130616121009
7.9609375,595.682715625039,474.130044193084
7.96484375,595.670057606123,474.131542485336
7.96875,595.666176366996,474.130552409692
7.97265625,595.668754512494,474.13090235679
7.9765625,595.671629923131,474.129044619366
7.98046875,595.671184775934,474.133037337931
7.984375,595.667487697742,474.13092206799
7.98828125,595.678910547191,474.131763865281
7.9921875,595.67213111055,474.12940920617
7.99609375,595.672934821673,474.131680434502
8,595.677268523089,474.130625151991
8.00390625,595.681074220014,474.132405601954
8.0078125,595.680662883092,474.127983195864
8.01171875,595.686956386871,474.13030951484
8.015625,595.67312442579,474.129970416313
8.01953125,595.675304378657,474.131613362894
8.0234375,595.673676745969,474.128830490223
8.02734375,595.67416457582,474.127807668972
8.03125,595.66672691209,474.128877249791
8.03515625,595.674158254718,474.123161527514
8.0390625,595.678062199616,474.124531855648
8.04296875,595.680361028426,474.126996607916
8.046875,595.678337931231,474.126239488536
8.05078125,595.661596637232,474.126001726848
8.0546875,595.679506122955,474.129292265897
8.05859375,595.67077756131,474.126742682323
8.0625,595.673210965824,474.127866915299
8.06640625,595.660924336658,474.124226999652
8.0703125,595.665762920905,474.127918398477
8.07421875,595.661008667128,474.127751443731
8.078125,595.672847396131,474.126231376251
8.08203125,595.655770760236,474.124636103143
8.0859375,595.673090894071,474.123195228745
8.08984375,595.664301553404,474.12338519951
8.09375,595.663193168066,474.124758442207
8.09765625,595.661806637729,474.124840500866
8.1015625,595.65646272399,474.12558237004
8.10546875,595.668303287364,474.127431819264
8.109375,595.660385792126,474.124522967351
8.11328125,595.66912120549,474.124342532403
8.1171875,595.665471825934,474.1275819335
8.12109375,595.670306790353,474.128306433736
8.125,595.66775518402,474.124302355037
8.12890625,595.659622710303,474.126725225952
8.1328125,595.647375870841,474.127440828993
8.13671875,595.640517211946,474.124009307864
8.140625,595.660233367582,474.124839995842
8.14453125,595.651343594359,474.124716960351
8.1484375,595.64890799085,474.12126801746
8.15234375,595.636322526776,474.122385520748
8.15625,595.644818894986,474.122251733273
8.16015625,595.646827802381,474.126399860854
8.1640625,595.635973953206,474.122602824793
8.16796875,595.635741303677,474.120958817745
8.171875,595.631935463444,474.123670830677
8.17578125,595.645926730478,474.122151420546
8.1796875,595.641462677711,474.121675299375
8.18359375,595.643428357782,474.124391995475
8.1875,595.640440193008,474.119835872158
8.19140625,595.642834980585,474.121227123838
8.1953125,595.6656988335,474.122812198434
8.19921875,595.676074067075,474.124620918324
8.203125,595.675543549191,474.122922429184
8.20703125,595.676357879606,474.121289558887
8.2109375,595.677135205124,474.120709374765
8.21484375,595.679847674373,474.118586998928
8.21875,595.663270274104,474.120503785807
8.22265625,595.683091558824,474.120305054363
8.2265625,595.673527437284,474.120911747788
8.23046875,595.680385995392,474.121812755995
8.234375,595.680371598265,474.118455869349
8.23828125,595.681609052276,474.119459828787
8.2421875,595.682530354049,474.120227580265
8.24609375,595.669578115591,474.118800566613
8.25,595.649044399551,474.122293698068
8.25390625,595.678000336709,474.119731827317
8.2578125,595.722554053077,474.116999867391
8.26171875,595.76942963947,474.119131548465
8.265625,595.80785204056,474.113999287452
8.26953125,595.825461990003,474.116817673625
8.2734375,595.847817060689,474.115131420551
8.27734375,595.937061056574,474.115038629668
8.28125,595.937844810487,474.118591395827
8.28515625,595.906595221212,474.122016802033
8.2890625,595.795361859475,474.118529442669
8.29296875,595.703471154146,474.119573133751
8.296875,595.672269633612,474.118783584053
8.30078125,595.690280408476,474.116495973993
8.3046875,595.706757152721,474.117267609908
8.30859375,595.701673498526,474.117209337618
8.3125,595.691803733578,474.115199033798
8.31640625,595.686022405383,474.116613113022
8.3203125,595.694149975411,474.115604214633
8.32421875,595.688353582574,474.114467490756
8.328125,595.690163950921,474.117751433091
8.33203125,595.684479052847,474.114346052065
8.3359375,595.683278667771,474.117178004795
8.33984375,595.678322042728,474.112767798221
8.34375,595.673902426467,474.11737925218
8.34765625,595.682246359806,474.115102997324
8.3515625,595.685550720151,474.11446371806
8.35546875,595.683346678213,474.114747511356
8.359375,595.683327994743,474.109243064309
8.36328125,595.692982865329,474.114797275116
8.3671875,595.691168267728,474.118053077368
8.37109375,595.675372205709,474.114166005891
8.375,595.682734383303,474.113770001686
8.37890625,595.683944860884,474.112093720245
8.3828125,595.694353069808,474.112510511125
8.38671875,595.685271984219,474.108580837484
8.390625,595.680822522204,474.11188539
8.39453125,595.68512063378,474.113373472323
8.3984375,595.68692676264,474.110233020617
8.40234375,595.685360780901,474.111366442347
8.40625,595.691998026979,474.112508186528
8.41015625,595.684402923595,474.109796694132
8.4140625,595.690330875271,474.112120268969
8.41796875,595.696317033368,474.112297319584
8.421875,595.708850356272,474.110009443369
8.42578125,595.705232382759,474.110204426594
8.4296875,595.702095353203,474.107345833287
8.43359375,595.710419518849,474.10939516538
8.4375,595.718051397664,474.107124624947
8.44140625,595.715256306274,474.107248048017
8.4453125,595.71097584992,474.106550344923
8.44921875,595.718029859025,474.106331270821
8.453125,595.709387477743,474.104594431726
8.45703125,595.705772584803,474.105081318463
8.4609375,595.715697224105,474.104401698166
8.46484375,595.713995065316,474.103818591686
8.46875,595.721130205051,474.103213780108
8.47265625,595.712039196389,474.103925512574
8.4765625,595.720589183903,474.102853772651
8.48046875,595.730512786093,474.101129331055
8.484375,595.723069998744,474.102058888094
8.48828125,595.715787347706,474.103743331657
8.4921875,595.709254111958,474.104218380207
8.49609375,595.716518883187,474.101717580437
8.5,595.726757495208,474.101695907318
8.50390625,595.70788300326,474.101481400356
8.5078125,595.698514172305,474.102337554463
8.51171875,595.701190571992,474.101885331994
8.515625,595.690560520636,474.099406762345
8.51953125,595.695902006112,474.101747502223
8.5234375,595.690360327055,474.100842229614
8.52734375,595.681566505539,474.097536502456
8.53125,595.678579888948,474.099533885182
8.53515625,595.685860776824,474.100322393709
8.5390625,595.680421740423,474.097608667312
8.54296875,595.678216405722,474.098871917073
8.546875,595.679422803582,474.097381732377
8.55078125,595.662795769546,474.099013034478
8.5546875,595.655970535541,474.096708762755
8.55859375,595.655706101832,474.096144560165
8.5625,595.667716626998,474.100432261929
8.56640625,595.662173713188,474.098002637807
8.5703125,595.663411128042,474.096008419822
8.57421875,595.651411444651,474.097857140873
8.578125,595.659742275525,474.095085197651
8.58203125,595.654017032502,474.096258044077
8.5859375,595.653183777898,474.096502311869
8.58984375,595.664048018233,474.094572851779
8.59375,595.663214255879,474.095353036426
8.59765625,595.669119310868,474.097569593497
8.6015625,595.669407822734,474.096775660463
8.60546875,595.661759112379,474.095572844769
8.609375,595.666681654679,474.096065996891
8.61328125,595.669181089353,474.094068708197
8.6171875,595.662428896259,474.095194828855
8.62109375,595.656314725262,474.093131799765
8.625,595.667792001712,474.09497212953
8.62890625,595.656905174212,474.092415016716
8.6328125,595.654703291265,474.095323183281
8.63671875,595.655528470782,474.094694628642
8.640625,595.655885925241,474.090621199504
8.64453125,595.664716499038,474.092876714619
8.6484375,595.649208899622,474.092468155676
8.65234375,595.653216379417,474.095752671313
8.65625,595.650679845987,474.09180540322
8.66015625,595.659949826812,474.091480855865
8.6640625,595.656672957068,474.089237152659
8.66796875,595.657858198686,474.091578600234
8.671875,595.653702286948,474.092675901413
8.67578125,595.650049458735,474.089964362557
8.6796875,595.648643505086,474.094085998692
8.68359375,595.658005069826,474.088646208827
8.6875,595.662393434799,474.088282253688
8.69140625,595.65705408307,474.091374802337
8.6953125,595.656069371105,474.093535437621
8.69921875,595.658335259527,474.087327418076
8.703125,595.663316767935,474.090363336975
8.70703125,595.650841567796,474.091091381643
8.7109375,595.659237022577,474.090702064379
8.71484375,595.670996290145,474.088014425612
8.71875,595.664920289802,474.090280064102
8.72265625,595.667009167517,474.089508226418
8.7265625,595.658033303187,474.086715260831
8.73046875,595.649409886881,474.087909694566
8.734375,595.6474189009,474.087420347233
8.73828125,595.654902301275,474.091346981162
8.7421875,595.655114781708,474.089978528977
8.74609375,595.656773122147,474.087290854872
8.75,595.656715761207,474.084045410356
8.75390625,595.666435414786,474.084481133803
8.7578125,595.662715743734,474.089107890699
8.76171875,595.654820888132,474.086287835016
8.765625,595.657661388186,474.086799211829
8.76953125,595.662167991257,474.087698548932
8.7734375,595.654620400094,474.087704311336
8.77734375,595.667702183398,474.086542220328
8.78125,595.65559986193,474.085545995733
8.78515625,595.639002148416,474.08632683103
8.7890625,595.654481502839,474.08607228286
8.79296875,595.643974777014,474.084543240291
8.796875,595.658671430866,474.088318786985
8.80078125,595.657151508217,474.084494110239
8.8046875,595.652255783379,474.086031114013
8.80859375,595.650664675441,474.085589377514
8.8125,595.633995178445,474.082036157873
8.81640625,595.644572406079,474.085365588581
8.8203125,595.63545174223,474.082895124005
8.82421875,595.647659190927,474.083300955672
8.828125,595.643832807529,474.08330489198
8.83203125,595.625629363383,474.08409099845
8.8359375,595.630203081966,474.081096735851
8.83984375,595.62781669507,474.081941276034
8.84375,595.630724314964,474.08338806734
8.84765625,595.626106251284,474.0842382817
8.8515625,595.630994348413,474.07974032249
8.85546875,595.628895973279,474.080909416104
8.859375,595.632163383551,474.08270767505
8.86328125,595.63069307322,474.084163582802
8.8671875,595.641684032735,474.085604426067
8.87109375,595.630315228598,474.080682055523
8.875,595.60560733919,474.081851208902
8.87890625,595.62283378631,474.080018693062
8.8828125,595.628420695327,474.078409428412
8.88671875,595.621774628182,474.082187916157
8.890625,595.620155562767,474.081420982081
8.89453125,595.631725474482,474.079853694516
8.8984375,595.629832357086,474.081915305465
8.90234375,595.636437078081,474.079433587644
8.90625,595.648913929705,474.07947517816
8.91015625,595.64682362373,474.080197396549
8.9140625,595.638889885597,474.078059996598
8.91796875,595.641932929236,474.080540908305
8.921875,595.652023141476,474.078492102129
8.92578125,595.646285970186,474.080044732338
8.9296875,595.635615940632,474.079201986237
8.93359375,595.61238053556,474.08020085422
8.9375,595.626449198141,474.081851641017
8.94140625,595.648184601827,474.075932005059
8.9453125,595.688278716314,474.078805862393
8.94921875,595.725723014108,474.077904485721
8.953125,595.769396372646,474.079682015044
8.95703125,595.786094649303,474.076909115096
8.9609375,595.841664322815,474.074161216225
8.96484375,595.867407228319,474.079146925984
8.96875,595.859900568258,474.076836163291
8.97265625,595.811317485257,474.080815048878
8.9765625,595.727135148863,474.077065997944
8.98046875,595.697855967864,474.07920753715
8.984375,595.676163122861,474.081345298815
8.98828125,595.687546649075,474.077576007045
8.9921875,595.672813589545,474.076529619203
8.99609375,595.664736932665,474.079526164504
9,595.662196451459,474.079031095464
9.00390625,595.652377594258,474.076393305918
9.0078125,595.64710737749,474.075519455769
9.01171875,595.644461057494,474.078016293189
9.015625,595.641694177753,474.07539663892
9.01953125,595.636842872448,474.075632864738
9.0234375,595.637880069362,474.07703000342
9.02734375,595.639825363361,474.078106269496
9.03125,595.637031628422,474.075683140566
9.03515625,595.631725496017,474.077303142426
9.0390625,595.648117851876,474.075206989872
9.04296875,595.653088610886,474.07479603984
9.046875,595.650164112157,474.077009165686
9.05078125,595.635487822761,474.074101288923
9.0546875,595.638921213161,474.076145030383
9.05859375,595.651853237822,474.076164850732
9.0625,595.648383181989,474.075457148196
9.06640625,595.65520692863,474.07537847564
9.0703125,595.644771497601,474.074656739707
9.07421875,595.654529055663,474.076507648719
9.078125,595.65126613005,474.076096847415
9.08203125,595.65837738587,474.07845008936
9.0859375,595.652412116638,474.074686679408
9.08984375,595.64579269623,474.076293273436
9.09375,595.650564723587,474.075413978546
9.09765625,595.655526057723,474.074880892522
9.1015625,595.667873373434,474.07472309483
9.10546875,595.65817986102,474.076579658277
9.109375,595.660435530463,474.072740240197
9.11328125,595.660530027827,474.075203140527
9.1171875,595.666038180645,474.073132606873
9.12109375,595.664479153435,474.070555534181
9.125,595.662039146678,474.074110901685
9.12890625,595.661477375072,474.070931123236
9.1328125,595.664722638508,474.071971411189
9.13671875,595.672850822617,474.071981796262
9.140625,595.676284257239,474.073553210163
9.14453125,595.68449935513,474.071568493147
9.1484375,595.688859577705,474.074763318371
9.15234375,595.686881420054,474.072480217859
9.15625,595.69285250412,474.071953661646
9.16015625,595.695002259837,474.069835749211
9.1640625,595.691440450677,474.073389395328
9.16796875,595.693191238997,474.072281430866
9.171875,595.681994952789,474.073055956383
9.17578125,595.687038880851,474.070349475512
9.1796875,595.695959644654,474.073822749483
9.18359375,595.687950557456,474.071071446096
9.1875,595.697370969264,474.071499678992
9.19140625,595.696108804872,474.074551533105
9.1953125,595.676299334071,474.06986432812
9.19921875,595.676401519549,474.070479964616
9.203125,595.673412249953,474.07225668937
9.20703125,595.653371611506,474.071404476723
9.2109375,595.651384510428,474.069614748542
9.21484375,595.667590237234,474.070280742062
9.21875,595.660410579172,474.070934473478
9.22265625,595.657174685861,474.071616929633
9.2265625,595.649847129518,474.070335671905
9.23046875,595.659218544878,474.07064637382
9.234375,595.65624806824,474.074113728875
9.23828125,595.638549213419,474.067432201895
9.2421875,595.65732148246,474.072793634458
9.24609375,595.653946279253,474.07217656481
9.25,595.643262150963,474.071196775052
9.25390625,595.641145021716,474.068755115125
9.2578125,595.65177760448,474.071021587412
9.26171875,595.638671279527,474.070390583891
9.265625,595.639397420651,474.067248480068
9.26953125,595.633835706634,474.070693397634
9.2734375,595.640762672913,474.071043092306
9.27734375,595.64565316775,474.069901629047
9.28125,595.652413842434,474.070289726085
9.28515625,595.641203899085,474.071110326371
9.2890625,595.633676882596,474.068402751439
9.29296875,595.634423677686,474.072945958138
9.296875,595.637226115007,474.069063946218
9.30078125,595.643356070171,474.070524391106
9.3046875,595.647747351287,474.067898357868
9.30859375,595.643740033111,474.066865919389
9.3125,595.640577838839,474.069056983061
9.31640625,595.646843698701,474.070493018533
9.3203125,595.644335917707,474.071041600396
9.32421875,595.649273718974,474.069259038349
9.328125,595.649717918039,474.070026636672
9.33203125,595.642650163687,474.069963106709
9.3359375,595.646001086177,474.070533635267
9.33984375,595.647046302646,474.070020910454
9.34375,595.63941057876,474.065817659585
9.34765625,595.643475237911,474.068635499444
9.3515625,595.640446540716,474.068092979954
9.35546875,595.640701235962,474.069443877425
9.359375,595.640347099212,474.068315097894
9.36328125,595.651624889717,474.068446395546
9.3671875,595.633388641916,474.065805996224
9.37109375,595.633980633335,474.068492577503
9.375,595.640130761875,474.066520727638
9.37890625,595.64829417909,474.070955409046
9.3828125,595.645404235846,474.072551513352
9.38671875,595.632877404159,474.070460161364
9.390625,595.632963119069,474.068221444403
9.39453125,595.638509841709,474.067585181174
9.3984375,595.645776183355,474.068938940563
9.40234375,595.644196965411,474.066739390972
9.40625,595.635087270725,474.067930659304
9.41015625,595.644787835588,474.066515053354
9.4140625,595.636176955864,474.068420942014
9.41796875,595.648296886758,474.068519689012
9.421875,595.63823447916,474.067948797433
9.42578125,595.635259983736,474.070156188664
9.4296875,595.624139626282,474.067893241901
9.43359375,595.631105175906,474.066866191692
9.4375,595.634081190868,474.068229412398
9.44140625,595.649651701776,474.069228419824
9.4453125,595.642438054252,474.069305890039
9.44921875,595.644004927187,474.070456017453
9.453125,595.640666346497,474.064755990036
9.45703125,595.646209176665,474.069694851011
9.4609375,595.651275196464,474.067747090069
9.46484375,595.641177823946,474.068356722833
9.46875,595.637245042589,474.068505563755
9.47265625,595.629083883787,474.069877215584
9.4765625,595.636233638385,474.067820027768
9.48046875,595.639024885937,474.067863050395
9.484375,595.648413328622,474.068870736323
9.48828125,595.62322256258,474.066167893774
9.4921875,595.627983205103,474.070494491984
9.49609375,595.641015185032,474.067361423782
9.5,595.642887456021,474.065787369017
9.50390625,595.645907056555,474.066921488394
9.5078125,595.649979518237,474.065354548281
9.51171875,595.636301975776,474.064342489065
9.515625,595.637231195838,474.067906057992
9.51953125,595.626401487729,474.067015006088
9.5234375,595.624616656793,474.071573915697
9.52734375,595.619640632555,474.066410333466
9.53125,595.612482957175,474.068426372138
9.53515625,595.613717300297,474.068447836452
9.5390625,595.611840765463,474.069589917286
9.54296875,595.611396034039,474.067908981811
9.546875,595.603608244391,474.067655432368
9.55078125,595.602196651923,474.069653097435
9.5546875,595.610685196868,474.067675307789
9.55859375,595.608346769196,474.069224824241
9.5625,595.616693903031,474.069112976257
9.56640625,595.619272439196,474.066169550378
9.5703125,595.617356811564,474.066139944332
9.57421875,595.625967847795,474.067097346658
9.578125,595.627858737787,474.067749734348
9.58203125,595.622584682884,474.069014990135
9.5859375,595.628439820036,474.068690215946
9.58984375,595.630438487954,474.068163160038
9.59375,595.636551091894,474.071014304807
9.59765625,595.647187703834,474.069372692742
9.6015625,595.640838507309,474.066664550956
9.60546875,595.634041012684,474.069713806594
9.609375,595.639475825169,474.067462110711
9.61328125,595.645246873302,474.069365148217
9.6171875,595.646496969559,474.067601147176
9.62109375,595.655903660057,474.067582376907
9.625,595.654566509818,474.068434947826
9.62890625,595.658520015359,474.071379547548
9.6328125,595.66367526599,474.066837188741
9.63671875,595.659216250423,474.06914417806
9.640625,595.637510744748,474.064958354998
9.64453125,595.643888339566,474.066235700837
9.6484375,595.662694348508,474.069503256471
9.65234375,595.709931437386,474.068459166103
9.65625,595.744412535933,474.070089259657
9.66015625,595.784124625798,474.069784210873
9.6640625,595.805546026539,474.066675127263
9.66796875,595.851280756641,474.068213632398
9.671875,595.88155868729,474.069450090014
9.67578125,595.871776128574,474.067958910995
9.6796875,595.825663594855,474.071867958724
9.68359375,595.74367535982,474.070921363213
9.6875,595.689996846677,474.0681821731
9.69140625,595.674887719005,474.068223490253
9.6953125,595.675012085787,474.069259034651
9.69921875,595.676157847115,474.069958333039
9.703125,595.678977595742,474.069482494658
9.70703125,595.67148741735,474.069170833789
9.7109375,595.663761640471,474.069430119977
9.71484375,595.667064763269,474.070529490005
9.71875,595.658894395747,474.069754419707
9.72265625,595.668011893092,474.070579179497
9.7265625,595.658461214871,474.070898410563
9.73046875,595.650238261549,474.070899971831
9.734375,595.643129881836,474.070441486498
9.73828125,595.644561279229,474.068822643284
9.7421875,595.663817042034,474.070501868507
9.74609375,595.670386953499,474.072187156495
9.75,595.643018283277,474.07058879706
9.75390625,595.648799496733,474.070180536484
9.7578125,595.653369998937,474.071035002538
9.76171875,595.651328297318,474.069117698535
9.765625,595.654198492928,474.069553686805
9.76953125,595.657657664227,474.071459712717
9.7734375,595.661305974535,474.070121277415
9.77734375,595.65519472711,474.070850891434
9.78125,595.658957404301,474.071563606625
9.78515625,595.668464474151,474.073122962772
9.7890625,595.661622171954,474.071209309333
9.79296875,595.6646152817,474.072258697479
9.796875,595.661091893897,474.07091458576
9.80078125,595.656245147004,474.069610297247
9.8046875,595.657993955464,474.073383211971
9.80859375,595.65480265539,474.070177250568
9.8125,595.665897847731,474.069747620901
9.81640625,595.65952630198,474.071172949256
9.8203125,595.663889343367,474.070903073649
9.82421875,595.664580259141,474.071803659272
9.828125,595.673202304399,474.072124482254
9.83203125,595.67601349714,474.0680593961
9.8359375,595.686120566223,474.072652412229
9.83984375,595.680576757597,474.069349888398
9.84375,595.682365836336,474.071532542116
9.84765625,595.686682080965,474.072356908372
9.8515625,595.677585997857,474.073702148327
9.85546875,595.686329742012,474.072000519083
9.859375,595.702575683787,474.072708567595
9.86328125,595.704596147281,474.07441975001
9.8671875,595.700798548828,474.072721772746
9.87109375,595.69748504114,474.073701771905
9.875,595.714228379357,474.071001852697
9.87890625,595.713199664028,474.072779134422
9.8828125,595.726597967344,474.073421089122
9.88671875,595.715759327913,474.072401054296
9.890625,595.717408386417,474.07162596407
9.89453125,595.723088940012,474.073748070904
9.8984375,595.715277338788,474.077720090184
9.90234375,595.707922078483,474.071616693076
9.90625,595.706877080475,474.075543841785
9.91015625,595.684290485464,474.073947200157
9.9140625,595.691925913738,474.074458004959
9.91796875,595.708935962574,474.075650134104
9.921875,595.692951486777,474.073361333858
9.92578125,595.687480451309,474.072634353736
9.9296875,595.683771413212,474.074334921178
9.93359375,595.6818245937,474.075637771578
9.9375,595.691585356917,474.075803584033
9.94140625,595.693345703553,474.075447589693
9.9453125,595.676233562191,474.076085609655
9.94921875,595.678112254376,474.074666146938
9.953125,595.665082028406,474.076576179832
9.95703125,595.678408916392,474.074529039177
9.9609375,595.684593106015,474.075148001123
9.96484375,595.670327749773,474.073585944202
9.96875,595.668119039478,474.074838228188
9.97265625,595.674132776011,474.074996374667
9.9765625,595.675532698752,474.076081708724
9.98046875,595.671259306547,474.075593448002
9.984375,595.675633673715,474.076701615548
9.98828125,595.675683102093,474.080244040669
9.9921875,595.672790163902,474.078325275504
9.99609375,595.664861834488,474.075965410317
10,595.676917616135,474.079514627018
10.00390625,595.667874865223,474.079490332418
10.0078125,595.662014852276,474.078840072126
10.01171875,595.66968268747,474.080045812222
10.015625,595.669769128534,474.077634499563
10.01953125,595.672497773371,474.077821246759
10.0234375,595.674516547801,474.077681008849
10.02734375,595.669808904629,474.082029898956
10.03125,595.664907734717,474.081951499213
10.03515625,595.658637379481,474.077226569398
10.0390625,595.671641469352,474.079680206342
10.04296875,595.669591795068,474.080439624533
10.046875,595.655628459365,474.08163644427
10.05078125,595.659268816112,474.080932930353
10.0546875,595.651038788043,474.080988595697
10.05859375,595.654973349627,474.082737198075
10.0625,595.657633200966,474.08330212245
10.06640625,595.6655855626,474.082306484283
10.0703125,595.647972116483,474.082893692013
10.07421875,595.65857482812,474.083945558732
10.078125,595.659787339433,474.082955601097
10.08203125,595.66440896968,474.083461201127
10.0859375,595.664961256951,474.086662550137
10.08984375,595.667107610905,474.083200336748
10.09375,595.673521523877,474.084658193773
10.09765625,595.675528901425,474.083676860367
10.1015625,595.674753476897,474.084191335664
10.10546875,595.672480455125,474.08560034426
10.109375,595.655020093028,474.084828389544
10.11328125,595.671740065098,474.087243935073
10.1171875,595.669223054522,474.086434928166
10.12109375,595.677606382438,474.086209650751
10.125,595.672584022283,474.085404128838
10.12890625,595.668926609693,474.087253619984
10.1328125,595.680117753208,474.090734305436
10.13671875,595.682524054129,474.091236205964
10.140625,595.675831956894,474.089625341018
10.14453125,595.689588455498,474.089292438555
10.1484375,595.664916050691,474.089829587199
10.15234375,595.653102572962,474.090440523358
10.15625,595.665359461217,474.089874503412
10.16015625,595.682047320906,474.090002600166
10.1640625,595.674271605051,474.09014034974
10.16796875,595.668715030623,474.09240468062
10.171875,595.656105093457,474.092823157062
10.17578125,595.663023902402,474.0919693405
10.1796875,595.672581200639,474.092815093913
10.18359375,595.671758301777,474.09118506895
10.1875,595.660778776507,474.094588498835
10.19140625,595.657381010054,474.091348236268
10.1953125,595.672836079262,474.094019752652
10.19921875,595.659254194435,474.090223647292
10.203125,595.661377669813,474.089941027167
10.20703125,595.66233543906,474.093313574205
10.2109375,595.655068424163,474.093858127684
10.21484375,595.666161997984,474.096262640755
10.21875,595.668972312817,474.092935884998
10.22265625,595.669765050608,474.093675193324
10.2265625,595.666805945768,474.097332456515
10.23046875,595.646911348742,474.09537237345
10.234375,595.639015656607,474.09727410547
10.23828125,595.646514796973,474.096252381169
10.2421875,595.650990542453,474.095927786329
10.24609375,595.644530019997,474.098173016901
10.25,595.645737673808,474.099881740283
10.25390625,595.64525358955,474.096114446618
10.2578125,595.648598378435,474.099462703247
10.26171875,595.64648935634,474.099792276529
10.265625,595.638582584936,474.10139094698
10.26953125,595.634054947114,474.099197451313
10.2734375,595.618710719875,474.100293491116
10.27734375,595.634165121235,474.102756312756
10.28125,595.642530165108,474.098785618744
10.28515625,595.639727825415,474.101519083382
10.2890625,595.642664029602,474.101359714224
10.29296875,595.649157930533,474.099195229912
10.296875,595.644438394935,474.101636783266
10.30078125,595.649585814227,474.10548736261
10.3046875,595.652553534487,474.101098713678
10.30859375,595.661605167398,474.102258623787
10.3125,595.660337130915,474.101845182918
10.31640625,595.663859521213,474.102573197764
10.3203125,595.668794943872,474.103635718207
10.32421875,595.672127437886,474.105170357711
10.328125,595.672085834078,474.105803290954
10.33203125,595.665019630324,474.102886813607
10.3359375,595.670986815981,474.100486051204
10.33984375,595.685862688396,474.104817900077
10.34375,595.665895625397,474.101946792126
10.34765625,595.671151465013,474.105900743362
10.3515625,595.678109042009,474.106812333907
10.35546875,595.679399573524,474.105518459696
10.359375,595.682719790367,474.104658352215
10.36328125,595.666075472449,474.108339589214
10.3671875,595.662572795283,474.110839378105
10.37109375,595.68605130751,474.107830368104
10.375,595.73337190325,474.10634715521
10.37890625,595.786190932409,474.104023340033
10.3828125,595.819048203146,474.108351471617
10.38671875,595.848188411801,474.107334120634
10.390625,595.921373792895,474.109459590684
10.39453125,595.946295249882,474.108824361238
10.3984375,595.906363620864,474.107477376694
10.40234375,595.817010213099,474.109738032309
10.40625,595.689109269096,474.110773352471
10.41015625,595.652574721352,474.112856096645
10.4140625,595.65558267279,474.107957132022
10.41796875,595.691679887529,474.111176785897
10.421875,595.696167880337,474.109077908879
10.42578125,595.702316442728,474.113756024134
10.4296875,595.697985337935,474.113028389172
10.43359375,595.685108577509,474.113161536682
10.4375,595.689761662335,474.111310311616
10.44140625,595.674567863605,474.113303937749
10.4453125,595.687141382903,474.113901938849
10.44921875,595.665630096485,474.1160980625
10.453125,595.676985919106,474.114338605784
10.45703125,595.674132464804,474.116241308695
10.4609375,595.67435290681,474.115189289814
10.46484375,595.676453519177,474.114055095939
10.46875,595.671312243043,474.111456221844
10.47265625,595.67085262963,474.11458563528
10.4765625,595.676405304467,474.116397535854
10.48046875,595.683631743811,474.11558954337
10.484375,595.67751375124,474.115041956224
10.48828125,595.667116195049,474.117389995322
10.4921875,595.667984347212,474.117062121379
10.49609375,595.681443512804,474.117057814247
10.5,595.678436673292,474.116701521399
10.50390625,595.676774941652,474.117552308941
10.5078125,595.680042750424,474.115781239617
10.51171875,595.677374683684,474.118396131548
10.515625,595.674978850145,474.117573041966
10.51953125,595.677673435662,474.119059029172
10.5234375,595.682537510104,474.118507177453
10.52734375,595.689044833464,474.120566650524
10.53125,595.674846971246,474.120400955692
10.53515625,595.682725063204,474.117261603487
10.5390625,595.682395621364,474.117004532215
10.54296875,595.690798345798,474.116414429297
10.546875,595.688834453976,474.11842892713
10.55078125,595.700565822558,474.119002206188
10.5546875,595.697716722253,474.115798757126
10.55859375,595.701658573468,474.119535900943
10.5625,595.714288957444,474.119261619931
10.56640625,595.709378297026,474.116725215964
10.5703125,595.708215509901,474.118407178492
10.57421875,595.717788303356,474.117786886508
10.578125,595.723295939259,474.121982706366
10.58203125,595.729222903408,474.117759374227
10.5859375,595.720731221919,474.118205638606
10.58984375,595.719753291458,474.11571811181
10.59375,595.719812554123,474.121315902741
10.59765625,595.725889170793,474.116682911911
10.6015625,595.726598140928,474.117215376208
10.60546875,595.71893446214,474.118687717126
10.609375,595.713109475779,474.118860139309
10.61328125,595.704604159155,474.118269801154
10.6171875,595.709774863726,474.116875905783
10.62109375,595.715522317429,474.116626238137
10.625,595.706861123212,474.120614645559
10.62890625,595.689806255359,474.116389365953
10.6328125,595.676141278611,474.11847381659
10.63671875,595.688297078539,474.117716601176
10.640625,595.682438973262,474.121838858683
10.64453125,595.674307002891,474.118185536889
10.6484375,595.679005022816,474.121487865243
10.65234375,595.682439231697,474.119534667065
10.65625,595.677868022551,474.121077170651
10.66015625,595.67533831758,474.120028067289
10.6640625,595.678171982401,474.122009442943
10.66796875,595.656131857646,474.121749263968
10.671875,595.652691265007,474.122101897908
10.67578125,595.662473748334,474.120610381543
10.6796875,595.665569681913,474.122208314572
10.68359375,595.664303861853,474.122465808127
